|Vds|	Gm_|Vgs|=0.15V	Gm_|Vgs|=0.3V	Gm_|Vgs|=0.45V	Gm_|Vgs|=0.6V	Gm_|Vgs|=0.75V	Gm_|Vgs|=0.9V
0.9	0.001172	0.0142399999999999	0.0300000000000008	0.0219999999999998	-0.0004000000000004	-0
0.895	0.001153	0.0134599999999999	0.029066666666667	0.0268333333333333	-0.000266666666666933	-3.33333333333666e-05
0.89	0.0011226	0.012624	0.0284800000000002	0.0308600000000002	-0.00018000000000018	-4.000000000004e-05
0.885	0.0010998	0.012062	0.02782	0.0339400000000002	-0.00016000000000016	-6.000000000006e-05
0.88	0.0010742	0.011568	0.02734	0.0362400000000003	-8.00000000000799e-05	-6.000000000006e-05
0.875	0.0010568	0.011318	0.0272000000000001	0.0369000000000002	-6.00000000000599e-05	-2.000000000002e-05
0.87	0.0010408	0.01128	0.02722	0.0367200000000001	-8.00000000000799e-05	0
0.865	0.0010204	0.011268	0.02728	0.03668	-4.000000000004e-05	2.000000000002e-05
0.86	0.0010068	0.011194	0.0272999999999999	0.0367200000000001	0	6.000000000006e-05
0.855	0.000993200000000002	0.011098	0.02726	0.03672	0	6.000000000006e-05
0.85	0.000976000000000001	0.011052	0.02722	0.0369399999999999	0	2.000000000002e-05
0.845	0.000969400000000001	0.010978	0.02718	0.03726	2.000000000002e-05	-4.000000000004e-05
0.84	0.000965400000000003	0.010858	0.0271800000000001	0.0372599999999999	4.000000000004e-05	-0.000120000000000121
0.835	0.000951200000000003	0.0108420000000001	0.0272400000000001	0.0371199999999999	6.000000000006e-05	-0.000160000000000161
0.83	0.000938200000000001	0.010896	0.0272800000000001	0.0372200000000001	0.00012000000000012	-0.000140000000000141
0.825	0.000929200000000001	0.010846	0.0273200000000001	0.0374600000000002	0.0001000000000001	-6.00000000000606e-05
0.82	0.000913600000000002	0.010774	0.0273200000000001	0.0375000000000001	2.000000000002e-05	6.00000000000593e-05
0.815	0.0008976	0.010732	0.02718	0.03748	6.000000000006e-05	0.0001000000000001
0.81	0.000886999999999999	0.01058	0.02712	0.03764	0.0001000000000001	4.000000000004e-05
0.805	0.000874799999999999	0.010404	0.02716	0.03774	0	2.000000000002e-05
0.8	0.0008602	0.010358	0.02702	0.03764	-8.00000000000799e-05	4.000000000004e-05
0.795	0.0008498	0.010354	0.02686	0.0375600000000001	-4.000000000004e-05	-3.3881317890172e-21
0.79	0.000839599999999999	0.010294	0.02688	0.03746	-2.000000000002e-05	-4.000000000004e-05
0.785	0.000827799999999999	0.010264	0.02688	0.0373399999999998	-6.000000000006e-05	2.000000000002e-05
0.78	0.0008202	0.010254	0.0268399999999999	0.0373599999999999	-4.000000000004e-05	4.000000000004e-05
0.775	0.0008132	0.010176	0.0268999999999999	0.03746	4.000000000004e-05	-4.000000000004e-05
0.77	0.000801	0.010074	0.02698	0.03766	2.000000000002e-05	-6.000000000006e-05
0.765	0.0007888	0.010016	0.02698	0.03796	-8.00000000000799e-05	0
0.76	0.0007812	0.00998399999999999	0.02686	0.0381200000000001	-6.000000000006e-05	4.000000000004e-05
0.755	0.0007706	0.00993199999999999	0.02674	0.0379999999999999	2.000000000002e-05	0
0.75	0.000756999999999999	0.00986599999999999	0.02672	0.0378999999999997	2.000000000002e-05	-2.000000000002e-05
0.745	0.000745799999999999	0.00979799999999999	0.02666	0.0378999999999997	-6.7762635780344e-21	0
0.74	0.000734400000000001	0.009734	0.02668	0.03788	2.00000000000198e-05	0
0.735	0.000721400000000001	0.009642	0.02688	0.0379400000000001	2.00000000000198e-05	2.000000000002e-05
0.73	0.000713200000000001	0.009542	0.0270000000000001	0.0380600000000001	-4.00000000000402e-05	8.00000000000799e-05
0.725	0.000707400000000001	0.00950600000000001	0.02692	0.0381000000000003	-8.00000000000802e-05	8.00000000000799e-05
0.72	0.000697800000000001	0.00950800000000002	0.02682	0.0381400000000003	-4.00000000000402e-05	0
0.715	0.000689799999999999	0.00948800000000001	0.02676	0.0382800000000001	0	-2.000000000002e-05
0.71	0.000684399999999999	0.009458	0.0266399999999999	0.03834	-4.000000000004e-05	-4.000000000004e-05
0.705	0.000675400000000001	0.00941800000000003	0.02658	0.03828	-6.00000000000602e-05	-0.0001000000000001
0.7	0.000663200000000001	0.00933200000000002	0.02678	0.0382799999999999	-2.20228566286118e-19	-0.0001000000000001
0.695	0.000655400000000002	0.00922400000000002	0.0269400000000001	0.0383799999999999	2.00000000000198e-05	-6.00000000000602e-05
0.69	0.000647800000000001	0.00913400000000001	0.0268	0.03842	-2.23616698075135e-19	-4.00000000000402e-05
0.685	0.000633200000000001	0.00908200000000001	0.02668	0.0384800000000001	2.00000000000198e-05	-2.3039296165317e-19
0.68	0.000620599999999999	0.00905799999999998	0.02668	0.0386999999999999	4.000000000004e-05	8.00000000000799e-05
0.675	0.000614199999999999	0.00902199999999999	0.02656	0.0388599999999999	2.000000000002e-05	0.0001000000000001
0.67	0.000606999999999999	0.00899	0.0263999999999999	0.0389	0	0.0001000000000001
0.665	0.0006008	0.00894799999999999	0.0263999999999999	0.0390199999999999	2.000000000002e-05	8.00000000000799e-05
0.66	0.000595	0.00887799999999999	0.02642	0.0390199999999999	4.000000000004e-05	-6.7762635780344e-21
0.655	0.000585199999999999	0.00883199999999999	0.0263999999999999	0.0388600000000001	2.000000000002e-05	-2.000000000002e-05
0.65	0.000576599999999999	0.00879399999999998	0.0264	0.0389200000000001	-2.000000000002e-05	-2.000000000002e-05
0.645	0.000569999999999999	0.00871199999999998	0.02638	0.03902	-4.000000000004e-05	-8.00000000000799e-05
0.64	0.000561999999999999	0.00862599999999999	0.02636	0.03898	-6.000000000006e-05	-6.000000000006e-05
0.635	0.000554799999999999	0.008576	0.02638	0.03906	-6.000000000006e-05	2.000000000002e-05
0.63	0.000548199999999999	0.00852	0.02636	0.0392199999999999	6.7762635780344e-21	-3.3881317890172e-21
0.625	0.000539400000000001	0.00844200000000002	0.0263000000000001	0.0392999999999999	8.00000000000804e-05	-3.3881317890172e-21
0.62	0.000529200000000001	0.00836400000000001	0.0262600000000001	0.03942	8.00000000000804e-05	6.000000000006e-05
0.615	0.000519000000000001	0.00831800000000001	0.02622	0.0396	4.33680868994202e-19	0
0.61	0.000512400000000001	0.00825400000000001	0.02626	0.03982	-4.00000000000395e-05	-0.00012000000000012
0.605	0.000508400000000001	0.00816600000000001	0.0263800000000001	0.0400400000000001	0.00154000000000001	-0.00014000000000014
0.6	0.000503199999999999	0.00814199999999999	0.02638	0.04006	0.00752000000000002	-8.000000000008e-05
0.595	0.000496999999999999	0.00814399999999999	0.02634	0.03998	0.0175	2.000000000002e-05
0.59	0.0004892	0.00810599999999999	0.02644	0.0399999999999999	0.0287400000000001	0.0001000000000001
0.585	0.000481799999999999	0.00805999999999999	0.0265	0.0400799999999999	0.0401400000000001	0.00014000000000014
0.58	0.0004752	0.008012	0.02638	0.04024	0.0499199999999999	0.00014000000000014
0.575	0.0004668	0.007932	0.02624	0.0404400000000001	0.0552399999999998	6.000000000006e-05
0.57	0.000459000000000002	0.00784000000000001	0.02626	0.0405800000000002	0.05682	-2.000000000002e-05
0.565	0.000454400000000001	0.00776000000000001	0.02626	0.0406600000000001	0.05738	0
0.56	0.000448200000000001	0.00770000000000001	0.02616	0.04056	0.05784	0
0.555	0.000440200000000001	0.00765800000000001	0.0261000000000001	0.04052	0.0584400000000001	-6.000000000006e-05
0.55	0.0004344	0.00762	0.02616	0.04076	0.0593000000000001	-4.000000000004e-05
0.545	0.000429399999999999	0.00757799999999999	0.02628	0.0409999999999999	0.06004	6.7762635780344e-21
0.54	0.000423799999999999	0.00753	0.02632	0.0411799999999999	0.0606399999999999	-4.000000000004e-05
0.535	0.000416999999999999	0.00748199999999999	0.0263	0.0413999999999999	0.0613599999999998	-4.000000000004e-05
0.53	0.000409599999999999	0.00742599999999999	0.02624	0.0414599999999999	0.0621999999999998	6.000000000006e-05
0.525	0.0004034	0.00735799999999999	0.02618	0.0413599999999998	0.0629999999999998	8.00000000000799e-05
0.52	0.0003986	0.00731799999999999	0.02614	0.0414399999999998	0.0637799999999998	0
0.515	0.000393	0.00730199999999999	0.02612	0.0415999999999999	0.0645999999999999	0
0.51	0.0003876	0.007258	0.02608	0.04178	0.06532	4.000000000004e-05
0.505	0.0003834	0.00718400000000001	0.02608	0.04208	0.0660600000000002	-4.00000000000402e-05
0.5	0.000377800000000001	0.00711800000000001	0.0261	0.0423400000000001	0.0669000000000003	-0.0001000000000001
0.495	0.000370800000000001	0.00706600000000001	0.026	0.0425200000000002	0.0678800000000003	-4.00000000000404e-05
0.49	0.000364400000000001	0.00700800000000001	0.02594	0.0427000000000002	0.0692000000000002	-2.00000000000204e-05
0.485	0.000359	0.00695400000000001	0.02602	0.0429200000000001	0.07068	-6.00000000000604e-05
0.48	0.0003546	0.00692	0.0261	0.04312	0.0719199999999999	-2.00000000000202e-05
0.475	0.00034902	0.00688	0.02618	0.04322	0.0731	6.000000000006e-05
0.47	0.00034084	0.00682	0.02622	0.0433199999999999	0.0745000000000001	4.000000000004e-05
0.465	0.00033418	0.006762	0.0261599999999999	0.04352	0.0759199999999999	2.000000000002e-05
0.46	0.00032904	0.006712	0.0261199999999999	0.0437	0.0774200000000001	6.000000000006e-05
0.455	0.00032326	0.006654	0.0261199999999999	0.04388	0.0791400000000001	4.000000000004e-05
0.45	0.00032048	0.00659199999999999	0.0260399999999999	0.04422	0.08094	-2.000000000002e-05
0.445	0.00031958	0.006548	0.02596	0.04464	0.08282	-4.00000000000401e-05
0.44	0.00031568	0.00650800000000001	0.0260200000000001	0.0449600000000001	0.0846400000000001	-8.00000000000803e-05
0.435	0.00031122	0.00646400000000001	0.0260800000000001	0.0451800000000001	0.0863400000000002	-8.00000000000803e-05
0.43	0.00030714	0.00641400000000001	0.02604	0.0454000000000001	0.0881800000000002	2.00000000000196e-05
0.425	0.00030208	0.00636200000000001	0.02606	0.0456800000000001	0.0902200000000001	8.00000000000796e-05
0.42	0.00029752	0.006308	0.02616	0.0459000000000001	0.09226	6.00000000000597e-05
0.415	0.00029398	0.00624199999999999	0.0260999999999999	0.0460799999999999	0.0942799999999999	4.000000000004e-05
0.41	0.00029072	0.00618799999999999	0.0260199999999999	0.0463999999999998	0.0965999999999997	2.000000000002e-05
0.405	0.0002861	0.00615199999999999	0.0261199999999999	0.0468399999999999	0.0992599999999996	-6.000000000006e-05
0.4	0.0002808	0.00611	0.02622	0.04734	0.10178	-0.0001000000000001
0.395	0.00027668	0.006068	0.02628	0.0478	0.10414	-4.000000000004e-05
0.39	0.00027232	0.006042	0.0263800000000001	0.0482	0.10688	2.000000000002e-05
0.385	0.00026798	0.005994	0.0264	0.0486600000000001	0.10974	2.000000000002e-05
0.38	0.00026444	0.005942	0.02628	0.04906	0.11242	-2.000000000002e-05
0.375	0.0002602	0.00592399999999999	0.0262	0.0493199999999999	0.11542	0.00835999999999989
0.37	0.00025724	0.00587399999999999	0.0262	0.0497599999999999	0.11876	0.0364599999999998
0.365	0.00025508	0.00578599999999999	0.02616	0.05046	0.12192	0.0789399999999998
0.36	0.00024994	0.00572799999999999	0.02618	0.05108	0.12494	0.12476
0.355	0.00024512	0.00568999999999999	0.02638	0.0517399999999999	0.12806	0.17112
0.35	0.0002425	0.00564	0.0264800000000001	0.0525800000000001	0.13118	0.209360000000001
0.345	0.000238020000000001	0.00560000000000002	0.0263800000000001	0.0532800000000003	0.13428	0.228140000000001
0.34	0.000233560000000001	0.00557200000000002	0.0264000000000001	0.0539200000000001	0.13754	0.233000000000001
0.335	0.000231440000000001	0.00553200000000003	0.0264800000000001	0.0547000000000002	0.14098	0.234960000000001
0.33	0.000229080000000001	0.00548200000000003	0.0264600000000001	0.0554800000000002	0.14434	0.236880000000001
0.325	0.00022534	0.00542000000000001	0.02648	0.0562800000000001	0.14766	0.23884
0.32	0.00022114	0.005364	0.02664	0.05718	0.15102	0.24074
0.315	0.00021718	0.005338	0.02676	0.05816	0.15428	0.24256
0.31	0.0002142	0.005316	0.02674	0.05932	0.15758	0.24432
0.305	0.00021168	0.005264	0.02678	0.0605199999999999	0.16112	0.24596
0.3	0.00020762	0.00520799999999999	0.0268799999999999	0.0616799999999998	0.1647	0.24768
0.295	0.00020394	0.00516799999999999	0.0268799999999999	0.0629999999999998	0.1682	0.2495
0.29	0.00020208	0.00511999999999999	0.02686	0.0644399999999999	0.17176	0.25124
0.285	0.00019904	0.00506799999999999	0.02698	0.0658799999999999	0.17522	0.25284
0.28	0.00019488	0.005034	0.02708	0.06744	0.1785	0.25426
0.275	0.00019224	0.005006	0.0271	0.0690600000000001	0.18164	0.25542
0.27	0.00018998	0.004962	0.02726	0.07078	0.18478	0.25672
0.265	0.00018626	0.004918	0.0274999999999999	0.0727199999999999	0.18794	0.25832
0.26	0.00018246	0.00487799999999999	0.02766	0.0746999999999998	0.19102	0.25988
0.255	0.00018016	0.00482599999999999	0.02776	0.0767799999999998	0.19416	0.26144
0.25	0.00017854	0.00477799999999999	0.02788	0.0791399999999998	0.1975	0.26314
0.245	0.00017616	0.00475199999999999	0.02802	0.0815199999999999	0.20086	0.26466
0.24	0.0001742	0.00471799999999999	0.02812	0.08388	0.204	0.26584
0.235	0.00017236	0.00466599999999999	0.02824	0.0865999999999999	0.20692	0.26704
0.23	0.00016822	0.004632	0.02848	0.0894799999999999	0.2097	0.26838
0.225	0.00016548	0.00460600000000001	0.0288	0.0922400000000001	0.21242	0.26976
0.22	0.000164360000000001	0.00455800000000002	0.0290200000000001	0.0952000000000003	0.215100000000001	0.271080000000001
0.215	0.000160700000000001	0.00451000000000002	0.0292200000000001	0.0984400000000003	0.217860000000001	0.272300000000001
0.21	0.000157640000000001	0.00448600000000002	0.0294800000000001	0.10164	0.220680000000001	0.273440000000001
0.205	0.000156640000000001	0.00446000000000002	0.0297600000000001	0.10488	0.223400000000001	0.274520000000001
0.2	0.00015374	0.00441800000000001	0.03006	0.10828	0.2259	0.2754
0.195	0.0001502	0.004384	0.03036	0.11184	0.22826	0.27624
0.19	0.00014856	0.00435	0.03078	0.1155	0.23054	0.27722
0.185	0.00014676	0.004308	0.0313	0.1193	0.2329	0.2783
0.18	0.00014514	0.00427	0.03178	0.12334	0.23538	0.27938
0.175	0.00014444	0.004238	0.03234	0.12752	0.2378	0.28048
0.17	0.00014302	0.004208	0.03308	0.1317	0.24006	0.28158
0.165	0.0001402	0.004188	0.03376	0.1358	0.24228	0.28256
0.16	0.00013738	0.00418599999999999	0.0344	0.13982	0.24452	0.28352
0.155	0.00013506	0.00418999999999999	0.0352	0.14386	0.24658	0.28446
0.15	0.00013314	0.00418239999999999	0.03608	0.14806	0.2486	0.28532
0.145	0.00013188	0.0041672	0.03704	0.1523	0.25064	0.28622
0.14	0.00013078	0.00416139999999999	0.03818	0.1565	0.25252	0.28722
0.135	0.0001298	0.0041416	0.03944	0.16074	0.25428	0.28804
0.13	0.00012962	0.004114	0.04082	0.165	0.25608	0.28864
0.125	0.00012912	0.004124	0.04238	0.1691	0.25766	0.28908
0.12	0.0001277	0.0041656	0.043914	0.1732	0.2592	0.28956
0.115	0.00012786	0.004205	0.0454399999999999	0.17736	0.26096	0.29026
0.11	0.00012918	0.004249	0.0473359999999999	0.1814	0.26264	0.29104
0.105	0.00012938	0.004313	0.0495459999999999	0.18546	0.26428	0.2918
0.1	0.00012908	0.00438600000000001	0.0518960000000001	0.18968	0.26612	0.29278
0.095	0.000130320000000001	0.00446660000000002	0.0546220000000002	0.193760000000001	0.267780000000001	0.293820000000001
0.09	0.00013238	0.00457620000000002	0.0577840000000002	0.197700000000001	0.269120000000001	0.294460000000001
0.0850000000000001	0.00013402	0.00471920000000002	0.0610440000000002	0.201640000000001	0.270540000000001	0.294980000000001
0.0800000000000001	0.00013694	0.00487860000000002	0.0643540000000002	0.205300000000001	0.271880000000001	0.295720000000001
0.0750000000000001	0.00014188	0.00506840000000001	0.0679220000000001	0.20882	0.27316	0.29642
0.0700000000000001	0.00014768	0.0053058	0.071754	0.2124	0.2746	0.29694
0.0650000000000001	0.00015416	0.0055842	0.075816	0.2159	0.27604	0.29754
0.0600000000000001	0.00016196	0.0059088	0.08009	0.21918	0.2771	0.298
0.055	0.00017132	0.0062976	0.0845899999999999	0.22231	0.2781	0.29844
0.05	0.00018314	0.006753	0.0892899999999999	0.225256	0.27928	0.29904
0.045	0.00019822	0.00728499999999999	0.0942399999999999	0.228192	0.280204	0.299356
0.04	0.00021622	0.00790399999999999	0.0994479999999999	0.231198	0.280986	0.299478
0.035	0.000237366	0.00862359999999999	0.104896	0.234238	0.2821	0.299962
0.03	0.000262652	0.00946639999999999	0.110568	0.237366	0.28327	0.300508
0.025	0.000292847	0.0104402	0.11636	0.240528	0.284276	0.30096
0.02	0.000327956	0.0116062	0.122196	0.243462	0.285436	0.30166
0.015	0.000368869	0.012691	0.12860716	0.2460948	0.2866452	0.3024356
0.01	0.000410661	0.0134664	0.13499548	0.2484204	0.2875896	0.3030228
0.005	0.000456466666666666	0.014431	0.1415558	0.250757333333333	0.288356	0.303474666666666
0	0.00049459	0.014154	0.1482316	0.252128	0.288792	0.303656
