|Vgs|	Gm_|Vds|=0.01V	Gm_|Vds|=0.02V	Gm_|Vds|=0.03V	Gm_|Vds|=0.04V	Gm_|Vds|=0.05V	Gm_|Vds|=0.06V	Gm_|Vds|=0.07V	Gm_|Vds|=0.08V	Gm_|Vds|=0.09V	Gm_|Vds|=0.1V
-0.3	4.71200000000026e-08	4.17600000000011e-08	4.46000000000012e-08	7.8800000000001e-08	7.00000000000015e-08	4.35600000000006e-08	8.80000000000011e-08	6.80000000000018e-08	5.60000000000012e-08	1.88000000000003e-07
-0.295	7.86666666666675e-08	7.99800000000002e-08	7.87933333333335e-08	1.09576666666667e-07	1.00366666666667e-07	9.14866666666665e-08	1.2e-07	1.09e-07	9.99999999999997e-08	1.97e-07
-0.29	1.30244e-07	1.29262e-07	1.32558e-07	1.54298e-07	1.50494e-07	1.46406e-07	1.698e-07	1.638e-07	1.586e-07	2.302e-07
-0.285	1.73604e-07	1.7644e-07	1.78124e-07	1.99324e-07	1.94183999999999e-07	1.9932e-07	2.146e-07	2.126e-07	2.126e-07	2.62999999999999e-07
-0.28	2.2061e-07	2.26474e-07	2.25396e-07	2.48128e-07	2.44102e-07	2.55676e-07	2.664e-07	2.696e-07	2.7e-07	3.06e-07
-0.275	2.65718e-07	2.73522e-07	2.72044e-07	2.94064e-07	2.96896e-07	3.0871e-07	3.174e-07	3.256e-07	3.28e-07	3.59e-07
-0.27	3.09232e-07	3.21689999999999e-07	3.18148e-07	3.41476e-07	3.50022e-07	3.61948e-07	3.43799999999999e-07	3.83e-07	3.90599999999999e-07	4.156e-07
-0.265	3.54628e-07	3.70401999999999e-07	3.63276e-07	3.93064e-07	4.03846e-07	4.1897e-07	3.50999999999999e-07	4.48799999999999e-07	4.592e-07	4.756e-07
-0.26	4.02821999999999e-07	4.20032e-07	4.1361e-07	4.47955999999999e-07	4.64542e-07	4.8122e-07	4.166e-07	5.18199999999999e-07	5.324e-07	5.47e-07
-0.255	4.56262e-07	4.76568e-07	4.74752e-07	5.08643999999999e-07	5.33266e-07	5.50674e-07	5.418e-07	5.90199999999999e-07	6.12e-07	6.29e-07
-0.25	5.16738e-07	5.40148e-07	5.40596e-07	5.77295999999999e-07	6.04118e-07	6.25578e-07	6.51999999999999e-07	6.72799999999999e-07	6.988e-07	7.17599999999999e-07
-0.245	5.83808e-07	6.10991999999999e-07	6.10964e-07	6.53438e-07	6.81672e-07	7.08695999999999e-07	7.68999999999999e-07	7.62199999999999e-07	7.92e-07	8.17599999999999e-07
-0.24	6.59339999999999e-07	6.92189999999999e-07	6.95308e-07	7.35854e-07	7.73731999999999e-07	8.03103999999999e-07	9.16599999999999e-07	8.602e-07	8.94999999999999e-07	9.31799999999999e-07
-0.235	7.45898000000004e-07	7.83976000000004e-07	7.88738000000004e-07	8.30184000000004e-07	8.74746000000004e-07	9.08228000000004e-07	1.0256e-06	9.76200000000005e-07	1.0144e-06	1.0566e-06
-0.23	8.41286000000003e-07	8.84108000000003e-07	8.84654000000004e-07	9.41898000000004e-07	9.81424000000004e-07	1.026742e-06	1.095e-06	1.10480000000001e-06	1.1466e-06	1.18940000000001e-06
-0.225	9.45590000000003e-07	9.93206000000003e-07	9.94724000000004e-07	1.067118e-06	1.103038e-06	1.1597e-06	1.1996e-06	1.2436e-06	1.2918e-06	1.33360000000001e-06
-0.22	1.060414e-06	1.11444e-06	1.123116e-06	1.205388e-06	1.244426e-06	1.3036e-06	1.3528e-06	1.4034e-06	1.4566e-06	1.4996e-06
-0.215	1.189708e-06	1.25021e-06	1.262098e-06	1.354608e-06	1.3976e-06	1.4618e-06	1.5274e-06	1.5864e-06	1.6416e-06	1.6828e-06
-0.21	1.336172e-06	1.401464e-06	1.413648e-06	1.509e-06	1.5652e-06	1.6422e-06	1.711e-06	1.7842e-06	1.8462e-06	1.879e-06
-0.205	1.496458e-06	1.571036e-06	1.5886e-06	1.6804e-06	1.758e-06	1.8414e-06	1.9136e-06	2e-06	2.0702e-06	2.1088e-06
-0.2	1.677474e-06	1.7644e-06	1.788e-06	1.8784e-06	1.9762e-06	2.0604e-06	2.1438e-06	2.239e-06	2.3174e-06	2.3712e-06
-0.195	1.8866e-06	1.9788e-06	2.0034e-06	2.1004e-06	2.2142e-06	2.3106e-06	2.396e-06	2.5024e-06	2.5946e-06	2.6566e-06
-0.19	2.1148e-06	2.2146e-06	2.2424e-06	2.3542e-06	2.4808e-06	2.5944e-06	2.6816e-06	2.7954e-06	2.9054e-06	2.9792e-06
-0.185	2.3646e-06	2.4832e-06	2.5146e-06	2.642e-06	2.789e-06	2.9056e-06	3.0128e-06	3.1308e-06	3.2514e-06	3.3434e-06
-0.18	2.6516e-06	2.784e-06	2.8164e-06	2.9564e-06	3.1306e-06	3.253e-06	3.3848e-06	3.5154e-06	3.6442e-06	3.747e-06
-0.175	2.9708e-06	3.1178e-06	3.1562e-06	3.311e-06	3.5052e-06	3.651e-06	3.8008e-06	3.9418e-06	4.0892e-06	4.1944e-06
-0.17	3.3216e-06	3.497e-06	3.545e-06	3.7134e-06	3.9344e-06	4.0888e-06	4.2584e-06	4.4124e-06	4.5794e-06	4.6864e-06
-0.165	3.7262e-06	3.9256e-06	3.9782e-06	4.1672e-06	4.4172e-06	4.5736e-06	4.762e-06	4.939e-06	5.1192e-06	5.2454e-06
-0.16	4.1922e-06	4.4044e-06	4.467e-06	4.6872e-06	4.9398e-06	5.1244e-06	5.33779999999999e-06	5.51799999999999e-06	5.7248e-06	5.8912e-06
-0.155	4.7098e-06	4.9344e-06	5.0236e-06	5.2856e-06	5.5258e-06	5.74059999999999e-06	5.98399999999999e-06	6.17179999999999e-06	6.4142e-06	6.61239999999999e-06
-0.15	5.2776e-06	5.52679999999999e-06	5.6336e-06	5.9506e-06	6.19619999999999e-06	6.43159999999999e-06	6.69419999999999e-06	6.92879999999999e-06	7.19419999999999e-06	7.40919999999999e-06
-0.145	5.9166e-06	6.205e-06	6.30899999999999e-06	6.6678e-06	6.94499999999999e-06	7.22839999999999e-06	7.51679999999999e-06	7.78959999999999e-06	8.06659999999999e-06	8.30599999999999e-06
-0.14	6.63679999999999e-06	6.95679999999999e-06	7.07979999999999e-06	7.4606e-06	7.78079999999999e-06	8.12739999999999e-06	8.44539999999999e-06	8.74879999999999e-06	9.03719999999999e-06	9.30959999999999e-06
-0.135	7.43239999999999e-06	7.78379999999999e-06	7.94399999999999e-06	8.35259999999999e-06	8.73359999999999e-06	9.11239999999999e-06	9.45459999999999e-06	9.81779999999999e-06	1.01154e-05	1.04162e-05
-0.13	8.33519999999999e-06	8.73059999999999e-06	8.90379999999999e-06	9.35679999999999e-06	9.81099999999999e-06	1.0212e-05	1.06052e-05	1.10032e-05	1.1328e-05	1.16564e-05
-0.125	9.35939999999999e-06	9.81719999999999e-06	9.99539999999999e-06	1.04958e-05	1.10166e-05	1.14384e-05	1.19102e-05	1.22972e-05	1.26986e-05	1.30886e-05
-0.12	1.04902e-05	1.10222e-05	1.12456e-05	1.1811e-05	1.237e-05	1.28094e-05	1.33486e-05	1.37406e-05	1.42328e-05	1.47114e-05
-0.115	1.17582e-05	1.23646e-05	1.26502e-05	1.33176e-05	1.38904e-05	1.43706e-05	1.49756e-05	1.5405e-05	1.59846e-05	1.6489e-05
-0.11	1.3209e-05	1.38854e-05	1.42226e-05	1.49848e-05	1.55894e-05	1.6134e-05	1.68198e-05	1.71002e-05	1.80236e-05	1.84472e-05
-0.105	1.48392e-05	1.55788e-05	1.59788e-05	1.68156e-05	1.74784e-05	1.80902e-05	1.88566e-05	1.88318e-05	2.02754e-05	2.06706e-05
-0.1	1.6668e-05	1.741e-05	1.79212e-05	1.8855e-05	1.96084e-05	2.02818e-05	2.1127e-05	2.10594e-05	2.27448e-05	2.3212e-05
-0.095	1.87146e-05	1.9435e-05	2.01318e-05	2.11174e-05	2.20238e-05	2.27786e-05	2.37124e-05	2.37502e-05	2.55752e-05	2.60744e-05
-0.09	2.09506e-05	2.17568e-05	2.26746e-05	2.36542e-05	2.47286e-05	2.56386e-05	2.66502e-05	2.69292e-05	2.8734e-05	2.93362e-05
-0.085	2.34994e-05	2.43804e-05	2.55312e-05	2.65508e-05	2.78e-05	2.89218e-05	2.99662e-05	3.0977e-05	3.21878e-05	3.30206e-05
-0.08	2.64572e-05	2.73534e-05	2.87412e-05	2.98294e-05	3.13312e-05	3.26e-05	3.3739e-05	3.5481e-05	3.6094e-05	3.70944e-05
-0.075	2.9779e-05	3.08014e-05	3.24064e-05	3.35396e-05	3.52996e-05	3.66358e-05	3.80346e-05	4.0041e-05	4.0618e-05	4.1667e-05
-0.07	3.35814e-05	3.47412e-05	3.65254e-05	3.77532e-05	3.9702e-05	4.113e-05	4.2868e-05	4.497e-05	4.5655e-05	4.6789e-05
-0.0649999999999999	3.8012e-05	3.9143e-05	4.1098e-05	4.2517e-05	4.4665e-05	4.6168e-05	4.8245e-05	5.0213e-05	5.1248e-05	5.2557e-05
-0.0599999999999999	4.29e-05	4.4113e-05	4.6253e-05	4.78989999999999e-05	5.0244e-05	5.1829e-05	5.4186e-05	5.5847e-05	5.7653e-05	5.91569999999999e-05
-0.0549999999999999	4.8298e-05	4.976e-05	5.2103e-05	5.39699999999999e-05	5.65039999999999e-05	5.8332e-05	6.0795e-05	6.2562e-05	6.49269999999999e-05	6.65499999999999e-05
-0.0499999999999999	5.45510000000001e-05	5.60790000000001e-05	5.86870000000001e-05	6.08120000000001e-05	6.35910000000001e-05	6.57960000000001e-05	6.83690000000001e-05	7.03700000000001e-05	7.30010000000001e-05	7.47750000000002e-05
-0.0449999999999999	6.15840000000003e-05	6.31970000000003e-05	6.60840000000003e-05	6.85170000000003e-05	7.15360000000003e-05	7.41060000000003e-05	7.69820000000003e-05	7.91110000000003e-05	8.20660000000004e-05	8.42370000000004e-05
-0.0399999999999999	6.92600000000003e-05	7.12730000000003e-05	7.44170000000003e-05	7.70850000000003e-05	8.05050000000003e-05	8.33540000000003e-05	8.65790000000003e-05	8.91580000000003e-05	9.23640000000004e-05	9.47750000000004e-05
-0.035	7.79590000000002e-05	8.03250000000003e-05	8.38330000000003e-05	8.67690000000003e-05	9.07970000000003e-05	9.38690000000003e-05	9.75110000000003e-05	0.000100469	0.000103916	0.00010643
-0.03	8.79260000000002e-05	9.05490000000003e-05	9.45150000000003e-05	9.78060000000003e-05	0.000102465	0.000105743	0.000109957	0.000112981	0.000116956	0.000119774
-0.025	9.90810000000001e-05	0.000102156	0.000106573	0.000110135	0.000115514	0.000119044	0.000123691	0.000127346	0.000131643	0.000134766
-0.02	0.000111671	0.000115104	0.000120016	0.000124023	0.000130037	0.000133668	0.000138956	0.00014351	0.000147922	0.000151461
-0.015	0.000126097	0.000129704	0.00013519	0.000139933	0.000146254	0.000149895	0.000156442	0.000161216	0.000166096	0.000170559
-0.01	0.000142429	0.000146238	0.000152424	0.000157697	0.000164372	0.000168445	0.000176045	0.000181297	0.000186834	0.00019206
-0.005	0.000160563	0.000164784	0.000171661	0.00017739	0.000184493	0.000189856	0.000197931	0.000204099	0.000210272	0.000215629
-0	0.000180795	0.000186031	0.000193306	0.000199626	0.000207255	0.000214442	0.000222798	0.000229243	0.000236212	0.000242249
0.005	0.00020381	0.000210264	0.000218229	0.000224482	0.000233465	0.000242416	0.000250777	0.000257508	0.000265403	0.000272617
0.01	0.000229851	0.000237103	0.000246242	0.000252113	0.000263137	0.000273574	0.000281792	0.00028991	0.000298854	0.00030631
0.015	0.00025884	0.00026738	0.000276973	0.000283815	0.000295887	0.000307265	0.000316319	0.000326272	0.000336254	0.000343612
0.02	0.000291236	0.000301809	0.000311427	0.000319875	0.000332597	0.0003444	0.000355069	0.000366171	0.000377138	0.000385758
0.025	0.000328239	0.000339825	0.000350544	0.000359252	0.000374598	0.000386356	0.000398808	0.00041052	0.00042326	0.00043314
0.03	0.00036998	0.000382108	0.000394319	0.000403409	0.00042198	0.0004337	0.0004481	0.00046122	0.00047598	0.00048582
0.035	0.000415993	0.0004296	0.00044298	0.00045496	0.00047476	0.0004872	0.000503919999999999	0.00051864	0.00053342	0.000545039999999999
0.04	0.00046778	0.00048304	0.000497479999999999	0.00051294	0.00053296	0.0005478	0.000566699999999999	0.000582359999999999	0.000596479999999999	0.000612279999999999
0.045	0.00052684	0.00054366	0.000559179999999999	0.00057606	0.00059792	0.00061644	0.000636279999999999	0.000653719999999999	0.00067014	0.000687839999999999
0.05	0.000592719999999999	0.0006114	0.000628779999999999	0.00064734	0.000671199999999999	0.000692539999999999	0.000713999999999999	0.000734219999999999	0.000754139999999999	0.000771639999999999
0.055	0.000666459999999999	0.000686779999999999	0.000706779999999999	0.000728859999999999	0.000752619999999999	0.000775939999999999	0.000801119999999999	0.000823879999999999	0.000846159999999999	0.000866259999999999
0.0600000000000001	0.000749539999999999	0.000771979999999999	0.000794619999999999	0.000818699999999999	0.000843679999999999	0.000870159999999999	0.000899039999999999	0.000923439999999999	0.000949179999999999	0.000973659999999999
0.0650000000000001	0.000842199999999999	0.000867559999999999	0.000893379999999999	0.000918759999999999	0.000947979999999999	0.000977819999999999	0.00100894	0.00103564	0.00106552	0.00109338
0.0700000000000001	0.000946139999999999	0.000973659999999999	0.00100336	0.00103356	0.0010656	0.00109778	0.00113146	0.001163	0.00119524	0.00122722
0.0750000000000001	0.00106284	0.00109356	0.00112634	0.00116206	0.0011963	0.00123254	0.00126898	0.00130566	0.00134004	0.00137742
0.0800000000000001	0.00119308000000001	0.00122830000000001	0.00126478000000001	0.00130486000000001	0.00134308000000001	0.00138466000000001	0.00142390000000001	0.00146362000000001	0.00150270000000001	0.00154404000000001
0.0850000000000001	0.00134004000000001	0.00137860000000001	0.00142048000000001	0.00146678000000001	0.00150810000000001	0.00155378000000001	0.00159716000000001	0.00164052000000001	0.00168678000000001	0.00173004000000001
0.09	0.00150552	0.00154748000000001	0.00159528000000001	0.00164706000000001	0.00169302000000001	0.00174268000000001	0.00179114000000001	0.00183850000000001	0.00189206000000001	0.00193804000000001
0.095	0.0016881	0.00173536000000001	0.00178932000000001	0.00184352000000001	0.00189670000000001	0.00195108000000001	0.00200618000000001	0.00205654000000001	0.00211642000000001	0.00216778000000001
0.1	0.00189128	0.00194468	0.0020053	0.00206468	0.00212244	0.0021812	0.00224554	0.00230242	0.00236866	0.00242614
0.105	0.00211864	0.0021806	0.0022465	0.00231468	0.00237864	0.00244304	0.00251586	0.00258252	0.00265572	0.00271824
0.11	0.00237402	0.00244692	0.00251774	0.00259242	0.0026688	0.00274068	0.00281892	0.00289602	0.00297632	0.00304558
0.115	0.00266354	0.00274512	0.00282454	0.00290614	0.0029923	0.0030724	0.00315696	0.00324636	0.00333336	0.00341214
0.12	0.0029898	0.00308064	0.00316982	0.00326266	0.00335642	0.00344712	0.00353788	0.00364012	0.00373562	0.00382356
0.125	0.00335432	0.00345676	0.00355656	0.00365996	0.00376676	0.00386958	0.00396624	0.0040792	0.0041854	0.0042834
0.13	0.00376356	0.00387462	0.00398884	0.0041024	0.0042188	0.004336	0.0044432	0.0045658	0.004683	0.004793
0.135	0.0042208	0.0043404	0.0044698	0.0045966	0.0047168	0.004848	0.00497079999999999	0.0051056	0.0052344	0.0053554
0.14	0.004728	0.004861	0.0050026	0.00514179999999999	0.0052738	0.005417	0.0055588	0.0057068	0.005847	0.00598059999999999
0.145	0.0052894	0.0054378	0.0055922	0.00574319999999999	0.00589239999999999	0.0060504	0.0062136	0.00637479999999999	0.00652859999999999	0.00667539999999999
0.15	0.00591159999999999	0.00607639999999999	0.0062446	0.00640879999999999	0.00657579999999999	0.00675099999999999	0.0069334	0.00710859999999999	0.00728459999999999	0.00744259999999999
0.155	0.00660219999999999	0.00678339999999999	0.00696599999999999	0.00714419999999999	0.00733519999999999	0.00752819999999999	0.007725	0.00791439999999999	0.00811399999999999	0.00828899999999999
0.16	0.0073642	0.00756459999999999	0.00776479999999999	0.00796279999999999	0.00817619999999999	0.00838779999999999	0.00860159999999999	0.00880879999999999	0.00902279999999999	0.00922519999999999
0.165	0.00820419999999999	0.00842999999999999	0.00864559999999999	0.00887339999999999	0.00910419999999999	0.00933779999999999	0.00956459999999999	0.00979979999999999	0.0100268	0.010258
0.17	0.00913719999999999	0.00938379999999999	0.00961599999999999	0.00987099999999999	0.0101278	0.0103846	0.010619	0.0108872	0.0111322	0.011387
0.175	0.0101704	0.0104292	0.0106872	0.0109604	0.0112488	0.0115196	0.0117808	0.012073	0.01234	0.0126142
0.18	0.0112964	0.0115808	0.0118616	0.0121592	0.012469	0.0127542	0.0130588	0.0133688	0.0136618	0.0139568
0.185	0.0125212	0.0128394	0.013142	0.0134788	0.013801	0.0141184	0.0144544	0.0147928	0.0151108	0.0154268
0.19	0.0138682	0.014205	0.0145464	0.0149166	0.0152566	0.0156076	0.0159784	0.0163482	0.0166882	0.0170296
0.195	0.0153444	0.0157018	0.0160798	0.0164756	0.0168428	0.0172204	0.0176412	0.0180292	0.0184016	0.0187746
0.2	0.0169474	0.017336	0.0177478	0.0181852	0.0185746	0.018992	0.0194384	0.0198622	0.0202654	0.020659
0.205	0.0186902000000001	0.0191102000000001	0.0195738000000001	0.0200434000000001	0.0204578000000001	0.0209254000000001	0.0213806000000001	0.0218516000000001	0.0222794000000001	0.0227020000000001
0.21	0.0205918000000001	0.0210404000000001	0.0215462000000001	0.0220202000000001	0.0224944000000001	0.0229890000000001	0.0234786000000001	0.0239796000000001	0.0244464000000001	0.0249210000000001
0.215	0.0226380000000001	0.0231358000000001	0.0236564000000001	0.0241494000000001	0.0246872000000001	0.0252002000000001	0.0257144000000001	0.0262642000000001	0.0267786000000001	0.0272894000000001
0.22	0.0248030000000001	0.0253666000000001	0.0259086000000001	0.0264482000000001	0.0270238000000001	0.0275644000000001	0.0280862000000001	0.0286884000000001	0.0292466000000001	0.0297704000000001
0.225	0.0271522	0.0277404	0.0283262	0.0289042	0.0295378	0.0300854	0.030673	0.0312822	0.0318872	0.0324338
0.23	0.0297174	0.0303044	0.0309298	0.031553	0.0322366	0.0328	0.033476	0.034098	0.034744	0.035314
0.235	0.0324406	0.033066	0.033724	0.03441	0.035098	0.035734	0.036434	0.037102	0.037768	0.038374
0.24	0.035316	0.035998	0.036706	0.03744	0.038134	0.038866	0.039584	0.040264	0.040964	0.041636
0.245	0.038424	0.039126	0.039896	0.04066	0.041384	0.042176	0.04294	0.043648	0.044378	0.045122
0.25	0.041714	0.042454	0.043276	0.044058	0.04481	0.045658	0.046416	0.047222	0.047952	0.04877
0.255	0.045112	0.045944	0.04679	0.047604	0.048382	0.0493	0.05004	0.0509	0.051662	0.052544
0.26	0.048706	0.04961	0.050466	0.051316	0.052156	0.053076	0.053892	0.054736	0.055584	0.0564759999999999
0.265	0.05253	0.053452	0.0543379999999999	0.055204	0.0561239999999999	0.057008	0.0579179999999999	0.0588019999999999	0.059702	0.0605679999999999
0.27	0.05651	0.0574579999999999	0.058364	0.059256	0.0602259999999999	0.061146	0.0620739999999999	0.0630519999999999	0.0639479999999999	0.0648239999999999
0.275	0.060624	0.0616399999999999	0.0625319999999999	0.063492	0.0644779999999999	0.06544	0.0663979999999999	0.067418	0.0683439999999999	0.0692519999999999
0.28	0.0649179999999999	0.0659599999999999	0.0668799999999999	0.067916	0.0689179999999999	0.0698719999999999	0.0708779999999999	0.0719399999999999	0.0729159999999999	0.0738579999999999
0.285	0.0693719999999999	0.0703719999999999	0.071388	0.072458	0.0734879999999999	0.0744719999999999	0.0754799999999999	0.0766099999999999	0.0775979999999999	0.0785779999999999
0.29	0.0739199999999999	0.0749359999999999	0.0759979999999999	0.07708	0.0781559999999999	0.0791879999999999	0.0802439999999999	0.0813439999999999	0.0823399999999999	0.0833559999999999
0.295	0.0785479999999999	0.079636	0.0807199999999999	0.0818439999999999	0.0829379999999999	0.0839799999999999	0.0851439999999999	0.0861659999999999	0.0872079999999999	0.0882459999999999
0.3	0.0833219999999999	0.0844239999999999	0.0855779999999999	0.0867459999999999	0.0878079999999999	0.0888699999999999	0.0900479999999999	0.0911079999999999	0.0922319999999999	0.0932359999999999
0.305	0.0882359999999999	0.089348	0.0905219999999999	0.0916759999999999	0.0927419999999999	0.0938759999999999	0.0950039999999999	0.0961299999999999	0.0973179999999999	0.0982679999999999
0.31	0.0932079999999999	0.0943379999999999	0.0954919999999999	0.0966699999999999	0.0977639999999999	0.0989779999999999	0.10008	0.101218	0.102396	0.103386
0.315	0.0982759999999999	0.0993379999999999	0.100546	0.101756	0.10289	0.104136	0.105172	0.106364	0.107522	0.108604
0.32	0.103438	0.104448	0.105714	0.106886	0.108068	0.109306	0.1103	0.111524	0.112704	0.113848
0.325	0.108568	0.109638	0.110896	0.112072	0.113254	0.114486	0.115552	0.116714	0.117878	0.119106
0.33	0.113676	0.114802	0.116096	0.117272	0.118478	0.119694	0.120862	0.121982	0.122910000000001	0.124196000000001
0.335	0.118836	0.120042	0.121364	0.122454	0.123556	0.12473	0.125988	0.127114	0.127918000000001	0.12907
0.34	0.123904	0.125228	0.126458	0.12755	0.12849	0.129566	0.130898	0.132044	0.133142000000001	0.134062
0.345	0.128866	0.130188	0.131312	0.132496	0.13359	0.134604	0.135886	0.137148	0.138380000000001	0.13925
0.35	0.133896	0.135178	0.13631	0.13749	0.138732	0.13987	0.141042	0.1424	0.143528	0.144424
0.355	0.139004	0.140284	0.14145	0.142652	0.143798	0.14501	0.146236	0.147494	0.148768	0.149626
0.36	0.144126	0.14531	0.146476	0.147792	0.14904	0.15016	0.151464	0.152638	0.154038	0.154998
0.365	0.149278	0.150396	0.151552	0.152924	0.15431	0.155482	0.156708	0.157902	0.1591	0.16026
0.37	0.154478	0.155588	0.156818	0.158124	0.15928	0.16056	0.16176	0.1629	0.16402	0.16518
0.375	0.15956	0.1606	0.1619	0.1631	0.16408	0.1654	0.16654	0.16764	0.16882	0.16992
0.38	0.16444	0.16546	0.1666	0.16776	0.16884	0.17018	0.17116	0.17236	0.17344	0.17464
0.385	0.16922	0.17024	0.17124	0.1724	0.17362	0.17478	0.17572	0.17694	0.17796	0.17926
0.39	0.17388	0.17488	0.17596	0.17712	0.17832	0.17932	0.1803	0.1813	0.1824	0.1837
0.395	0.17836	0.17942	0.18056	0.18174	0.18278	0.18386	0.18486	0.18566	0.18684	0.18804
0.4	0.18276	0.18384	0.18496	0.18616	0.18718	0.18818	0.18924	0.19006	0.19124	0.19236
0.405	0.18708	0.18804	0.18936	0.19042	0.19154	0.19232	0.19342	0.19434	0.19552	0.19662
