Vds	Gm_Vgs=0.15V	Gm_Vgs=0.3V	Gm_Vgs=0.45V	Gm_Vgs=0.6V	Gm_Vgs=0.75V	Gm_Vgs=0.9V
0	3.890516e-06	0.00024676	0.006867	0.02271756	0.0145396	0.0170044
0.005	3.71075733333333e-06	0.000228905	0.0066144	0.02565674	0.0340746333333333	0.0450661333333333
0.01	3.4137544e-06	0.000200911	0.00623334	0.026196184	0.04162496	0.05574792
0.015	3.1491172e-06	0.000176375	0.00584632	0.026634872	0.04826904	0.06535104
0.02	2.8668418e-06	0.000150982	0.00539595	0.026368898	0.05143932	0.07003094
0.025	2.610012e-06	0.000128645	0.00494268	0.02518234	0.04936098	0.06732424
0.03	2.380712e-06	0.000109309	0.00449642	0.0239746	0.0469646	0.0643796
0.035	2.177222e-06	9.2665e-05	0.00406398	0.0230602	0.0461188	0.063744
0.04	2.008626e-06	7.8827e-05	0.0036698	0.0221576	0.0452828	0.063112
0.045	1.863132e-06	6.6404e-05	0.003318	0.0212682	0.044426	0.062468
0.05	1.72438e-06	5.5764e-05	0.0029934	0.02038	0.04352	0.06178
0.055	1.60477e-06	4.7645e-05	0.0026902	0.0194954	0.04262	0.061078
0.06	1.51787e-06	4.0617e-05	0.0024156	0.018632	0.04174	0.060382
0.065	1.445e-06	3.4107e-05	0.0021664	0.0177884	0.04085	0.059702
0.07	1.3696e-06	2.889e-05	0.0019372	0.01697	0.039966	0.059028
0.075	1.3086e-06	2.4932e-05	0.0017338	0.016188	0.039102	0.058356
0.08	1.2596e-06	2.1681e-05	0.0015528	0.01542	0.038232	0.057682
0.085	1.202e-06	1.9015e-05	0.0013884	0.01465	0.037342	0.056966
0.09	1.1368e-06	1.7132e-05	0.001239	0.01389	0.03644	0.056216
0.095	1.081e-06	1.5721e-05	0.0011016	0.013148	0.035536	0.055454
0.1	1.0412e-06	1.3765e-05	0.000980799999999999	0.012442	0.034662	0.054702
0.105	1.0228e-06	1.1794e-05	0.000876799999999999	0.011774	0.033786	0.053966
0.11	1.0172e-06	1.0898e-05	0.000779	0.011136	0.032888	0.05324
0.115	1.0054e-06	9.97099999999999e-06	0.0006896	0.010524	0.03198	0.05244
0.12	9.96199999999999e-07	8.44299999999999e-06	0.0006184	0.009928	0.031082	0.051618
0.125	9.894e-07	7.38500000000001e-06	0.000555200000000001	0.009336	0.030188	0.05085
0.13	9.662e-07	6.91200000000003e-06	0.000491400000000001	0.008766	0.029306	0.050036
0.135	9.188e-07	6.21600000000003e-06	0.0004382	0.00823	0.028452	0.04919
0.14	8.778e-07	5.41100000000003e-06	0.000397399999999999	0.00772000000000001	0.02763	0.048438
0.145	8.596e-07	5.14400000000002e-06	0.000356199999999999	0.007232	0.026802	0.047688
0.15	8.466e-07	5.159e-06	0.0003184	0.00678	0.025936	0.046854
0.155	8.21e-07	4.70199999999999e-06	0.0002914	0.006346	0.025072	0.046036
0.16	7.94e-07	4.17699999999999e-06	0.000266600000000001	0.005906	0.024238	0.045232
0.165	7.858e-07	4.05099999999997e-06	0.000244400000000001	0.005506	0.023418	0.044404
0.17	7.81200000000001e-07	3.92499999999997e-06	0.000227600000000001	0.005154	0.022572	0.04355
0.175	7.512e-07	3.86399999999999e-06	0.000209400000000001	0.00481000000000001	0.021766	0.042716
0.18	7.234e-07	3.93999999999998e-06	0.0001912	0.004478	0.021016	0.041916
0.185	7.296e-07	3.98599999999998e-06	0.000175799999999999	0.004186	0.020244	0.041094
0.19	7.33e-07	3.972e-06	0.000160399999999999	0.0039	0.019474	0.040234
0.195	7.114e-07	3.647e-06	0.000148799999999999	0.003616	0.018762	0.039404
0.2	6.99e-07	3.36599999999999e-06	0.0001436	0.00337199999999999	0.018058	0.038594
0.205	7.108e-07	3.61e-06	0.0001384	0.00314799999999999	0.017338	0.03776
0.21	7.09e-07	4.111e-06	0.0001338	0.002918	0.016646	0.037154
0.215	6.87399999999999e-07	4.839e-06	0.0001322	0.0027	0.015958	0.036786
0.22	6.69799999999999e-07	5.43900000000002e-06	0.0001262	0.00252000000000001	0.01528	0.0362
0.225	6.66200000000001e-07	5.40500000000001e-06	0.000114399999999999	0.00235200000000001	0.01462	0.035354
0.23	6.44600000000001e-07	4.74600000000001e-06	0.0001064	0.002188	0.013976	0.034532
0.235	6.11600000000001e-07	3.439e-06	0.000102600000000001	0.002046	0.013374	0.0335
0.24	6.032e-07	2.503e-06	9.95999999999994e-05	0.00191399999999999	0.012802	0.032206
0.245	6.028e-07	2.85000000000001e-06	0.000101399999999999	0.00177799999999999	0.012228	0.03118
0.25	5.956e-07	2.91400000000002e-06	0.000104799999999999	0.00165999999999999	0.011672	0.0303999999999999
0.255	5.97599999999999e-07	2.56400000000001e-06	0.0001054	0.001568	0.01114	0.02956
0.26	6.19399999999999e-07	3.55800000000002e-06	0.000106	0.001472	0.0106	0.02876
0.265	6.33999999999999e-07	4.34100000000001e-06	0.000103200000000001	0.001384	0.01008	0.028
0.27	6.384e-07	4.02799999999999e-06	9.34000000000015e-05	0.00131	0.00959799999999999	0.02712
0.275	6.364e-07	4.18700000000001e-06	8.52000000000015e-05	0.00122	0.00914	0.0262800000000001
0.28	6.22200000000001e-07	4.16500000000001e-06	8.28000000000011e-05	0.00113	0.00867600000000001	0.0255800000000001
0.285	6.06200000000001e-07	3.60099999999999e-06	8.22000000000004e-05	0.00108800000000001	0.00821000000000002	0.0248400000000001
0.29	6.05600000000001e-07	3.567e-06	8.11999999999998e-05	0.00106200000000001	0.00778200000000003	0.02408
0.295	5.988e-07	3.36500000000001e-06	7.99999999999998e-05	0.00100400000000001	0.00740400000000001	0.02342
0.3	5.74799999999999e-07	3.02500000000001e-06	8.27999999999999e-05	0.00095	0.00704399999999999	0.02276
0.305	5.63199999999999e-07	3.564e-06	8.47999999999994e-05	0.000905999999999996	0.006694	0.022
0.31	5.538e-07	3.255e-06	7.95999999999988e-05	0.000839999999999994	0.00638800000000001	0.02126
0.315	5.476e-07	2.32e-06	7.77999999999992e-05	0.000787999999999995	0.00609600000000001	0.0206
0.32	5.732e-07	2.43099999999999e-06	8.31999999999997e-05	0.000782	0.00578000000000002	0.0199
0.325	6.184e-07	2.57599999999999e-06	8.39999999999993e-05	0.000772000000000003	0.00546200000000001	0.01916
0.33	6.268e-07	2.56100000000001e-06	8.19999999999993e-05	0.00075	0.00517999999999999	0.01846
0.335	5.77600000000001e-07	2.75900000000002e-06	8.46000000000002e-05	0.000743999999999997	0.00491799999999998	0.01778
0.34	5.196e-07	2.82300000000001e-06	8.44000000000003e-05	0.000719999999999997	0.00464399999999999	0.01716
0.345	5.064e-07	3.00000000000001e-06	8.18e-05	0.000665999999999997	0.00439200000000001	0.01668
0.35	5.176e-07	3.183e-06	7.96000000000006e-05	0.000631999999999999	0.00418000000000002	0.01622
0.355	5.408e-07	3.18899999999998e-06	7.58000000000009e-05	0.000624000000000002	0.00396800000000003	0.01566
0.36	5.74599999999999e-07	3.54999999999997e-06	7.46000000000003e-05	0.000602000000000002	0.00375800000000002	0.01508
0.365	5.79199999999999e-07	3.71199999999999e-06	7.46000000000003e-05	0.000594000000000002	0.003566	0.01448
0.37	5.55999999999999e-07	3.30400000000001e-06	7.42000000000005e-05	0.000616000000000001	0.00337599999999998	0.01384
0.375	5.436e-07	2.77700000000001e-06	7.62e-05	0.000609999999999998	0.00320399999999998	0.01322
0.38	5.666e-07	2.45299999999999e-06	7.63999999999999e-05	0.000582	0.00305799999999998	0.01268
0.385	6.258e-07	2.47599999999999e-06	7.24000000000004e-05	0.000582000000000004	0.00292799999999999	0.01222
0.39	6.62e-07	2.37399999999999e-06	6.76000000000002e-05	0.000582000000000004	0.002822	0.01176
0.395	6.228e-07	2.41299999999997e-06	6.33999999999997e-05	0.000558000000000004	0.00271599999999999	0.01128
0.4	5.834e-07	2.723e-06	6.60000000000001e-05	0.000534000000000004	0.00258199999999999	0.01078
0.405	5.594e-07	2.80800000000003e-06	7.48000000000004e-05	0.000517999999999999	0.00246	0.01032
0.41	5.13400000000001e-07	3.07000000000003e-06	7.96000000000001e-05	0.000515999999999998	0.002366	0.00996000000000002
0.415	5.31200000000001e-07	3.31700000000003e-06	7.96000000000001e-05	0.000512	0.002262	0.00958
0.42	5.98000000000001e-07	3.04500000000002e-06	7.66e-05	0.000498	0.00215999999999999	0.00914
0.425	6.13e-07	3.113e-06	7.11999999999994e-05	0.000504000000000003	0.00208	0.00877999999999998
0.43	6.126e-07	3.00999999999999e-06	6.87999999999996e-05	0.000522000000000005	0.001998	0.00845999999999995
0.435	6.17999999999999e-07	2.45999999999999e-06	6.87999999999996e-05	0.000514	0.00190999999999998	0.00801999999999996
0.44	5.85399999999999e-07	2.84799999999997e-06	6.91999999999994e-05	0.000503999999999999	0.00184999999999999	0.0076
0.445	5.53799999999999e-07	3.07199999999997e-06	7.03999999999998e-05	0.000511999999999999	0.00179800000000002	0.00734000000000001
0.45	5.34999999999999e-07	2.91299999999998e-06	6.8e-05	0.000499999999999992	0.00174800000000001	0.00710000000000002
0.455	4.864e-07	3.82799999999999e-06	6.43999999999997e-05	0.000475999999999992	0.00172799999999997	0.00678000000000002
0.46	4.74400000000001e-07	4.55400000000002e-06	6.52e-05	0.000463999999999999	0.00168199999999999	0.00648
0.465	4.81800000000001e-07	4.25100000000003e-06	7.05999999999999e-05	0.000455999999999999	0.00161000000000002	0.00623999999999997
0.47	4.64800000000001e-07	4.09100000000003e-06	7.63999999999996e-05	0.000443999999999996	0.00158400000000001	0.00593999999999995
0.475	5.01200000000001e-07	3.72600000000003e-06	7.92000000000003e-05	0.000436	0.00154800000000002	0.00565999999999994
0.48	5.59e-07	2.66800000000001e-06	7.94000000000006e-05	0.000436000000000004	0.00146200000000004	0.00545999999999998
0.485	5.57199999999999e-07	2.00299999999999e-06	7.56000000000003e-05	0.000442000000000003	0.00142400000000004	0.00522000000000005
0.49	5.19799999999999e-07	1.68999999999998e-06	6.84000000000008e-05	0.000452000000000004	0.00141800000000001	0.00498000000000005
0.495	5.038e-07	1.61299999999998e-06	6.32000000000008e-05	0.000462000000000005	0.00138399999999998	0.00478000000000002
0.5	5.16e-07	2.14899999999998e-06	6.21999999999997e-05	0.000476	0.00137599999999998	0.00454000000000006
0.505	5.042e-07	2.567e-06	6.09999999999993e-05	0.000471999999999994	0.00138599999999997	0.00432000000000005
0.51	4.79399999999999e-07	2.82600000000001e-06	6.07999999999994e-05	0.000449999999999994	0.00136199999999998	0.00417999999999998
0.515	5.468e-07	3.32799999999999e-06	6.4599999999999e-05	0.000433999999999998	0.001332	0.00403999999999998
0.52	6.13199999999999e-07	3.21799999999999e-06	6.99999999999995e-05	0.000408000000000001	0.001296	0.00390000000000001
0.525	5.33599999999999e-07	2.813e-06	7.02000000000004e-05	0.000374000000000003	0.00124599999999999	0.00378
0.53	4.72599999999999e-07	3.23099999999998e-06	6.62000000000003e-05	0.000382000000000004	0.00121999999999999	0.00367999999999997
0.535	5.06199999999999e-07	3.27099999999999e-06	6.84000000000003e-05	0.000416000000000001	0.001204	0.00355999999999998
0.54	4.88999999999999e-07	2.79600000000003e-06	7.12000000000005e-05	0.000421999999999996	0.00117199999999999	0.00338000000000001
0.545	4.44599999999998e-07	2.98000000000004e-06	6.81999999999999e-05	0.000419999999999995	0.00115	0.00323999999999998
0.55	4.554e-07	3.23600000000003e-06	6.75999999999998e-05	0.000430000000000001	0.00117000000000003	0.00311999999999997
0.555	4.80800000000002e-07	3.07200000000004e-06	6.72000000000006e-05	0.000428000000000005	0.00118800000000003	0.00294000000000004
0.56	4.72000000000003e-07	2.80600000000003e-06	6.18000000000007e-05	0.000414000000000006	0.00116800000000001	0.00284000000000004
0.565	4.65600000000003e-07	2.88900000000001e-06	5.86000000000002e-05	0.000416000000000007	0.00114999999999999	0.00281999999999999
0.57	4.85000000000003e-07	3.223e-06	6.12000000000005e-05	0.000424000000000003	0.00114399999999999	0.00273999999999997
0.575	4.87400000000001e-07	3.27599999999999e-06	6.62000000000005e-05	0.000411999999999995	0.001108	0.00267999999999998
0.58	4.74799999999999e-07	3.00399999999998e-06	6.99999999999995e-05	0.000391999999999992	0.00107599999999999	0.00263999999999997
0.585	4.924e-07	3.18599999999997e-06	7.03999999999993e-05	0.000383999999999992	0.00108	0.00251999999999999
0.59	5.098e-07	3.63699999999996e-06	7.18000000000002e-05	0.000371999999999994	0.00107000000000001	0.00244000000000004
0.595	5.22199999999999e-07	3.77999999999997e-06	7e-05	0.000368	0.00104199999999999	0.00242000000000009
0.6	5.89799999999999e-07	4.16399999999998e-06	6.21999999999992e-05	0.000404000000000007	0.00101999999999998	0.00234000000000008
0.605	6.33199999999999e-07	4.47099999999997e-06	6.05999999999995e-05	0.000430000000000009	0.00101800000000001	0.00224000000000005
0.61	6.13599999999998e-07	3.98799999999998e-06	6.29999999999999e-05	0.000408000000000005	0.00102600000000001	0.00220000000000001
0.615	6.00399999999998e-07	3.047e-06	6.33999999999996e-05	0.000390000000000004	0.00103199999999999	0.00217999999999996
0.62	5.54000000000001e-07	2.427e-06	6.41999999999998e-05	0.000402000000000002	0.00103199999999999	0.00209999999999995
0.625	4.77200000000002e-07	2.14199999999999e-06	6.41999999999998e-05	0.000397999999999995	0.00101800000000001	0.00205999999999994
0.63	4.58600000000001e-07	2.264e-06	6.43999999999997e-05	0.000371999999999994	0.000980000000000008	0.00209999999999995
0.635	4.586e-07	2.87400000000001e-06	6.61999999999998e-05	0.000371999999999998	0.000943999999999996	0.00206000000000001
0.64	4.45199999999999e-07	3.471e-06	6.23999999999996e-05	0.000398	0.000942000000000008	0.00194000000000003
0.645	4.68e-07	4.03399999999998e-06	6.01999999999997e-05	0.000399999999999996	0.000960000000000022	0.00189999999999999
0.65	5.136e-07	4.32099999999998e-06	6.76000000000002e-05	0.000387999999999994	0.000984000000000001	0.00186000000000002
0.655	5.76599999999999e-07	3.964e-06	6.8e-05	0.000417999999999998	0.000995999999999982	0.00174000000000004
0.66	6.17799999999999e-07	3.44300000000001e-06	6.23999999999996e-05	0.000450000000000003	0.000989999999999983	0.00171999999999998
0.665	5.88599999999999e-07	3.24600000000002e-06	6.74000000000003e-05	0.00043	0.000959999999999988	0.00175999999999999
0.67	5.54199999999998e-07	2.91700000000002e-06	7.0200000000001e-05	0.000401999999999998	0.000931999999999998	0.00170000000000003
0.675	5.23599999999999e-07	2.38600000000003e-06	6.24000000000008e-05	0.000394000000000002	0.000932	0.00166
0.68	4.91800000000002e-07	2.51800000000003e-06	6.32000000000006e-05	0.000380000000000004	0.000921999999999992	0.00175999999999996
0.685	5.18000000000003e-07	3.093e-06	6.92000000000007e-05	0.000367999999999997	0.00090199999999999	0.0018
0.69	5.67200000000004e-07	3.053e-06	6.42e-05	0.000363999999999995	0.000925999999999986	0.00170000000000001
0.695	5.96400000000003e-07	2.731e-06	6.1999999999999e-05	0.000355999999999999	0.000955999999999999	0.00163999999999998
0.7	5.90600000000002e-07	2.523e-06	6.67999999999991e-05	0.000360000000000001	0.000926000000000018	0.00164000000000001
0.705	5.20600000000001e-07	1.94500000000001e-06	6.41999999999998e-05	0.000365999999999999	0.000912000000000013	0.00160000000000004
0.71	4.778e-07	1.63900000000002e-06	6.14000000000001e-05	0.000362000000000001	0.000942000000000008	0.00154000000000001
0.715	5.32199999999998e-07	2.25999999999999e-06	6.44000000000002e-05	0.000368000000000004	0.000936000000000009	0.00151999999999999
0.72	5.93999999999999e-07	3.04899999999999e-06	6.26000000000001e-05	0.000384000000000005	0.000905999999999996	0.00156
0.725	6.42999999999999e-07	3.43200000000002e-06	5.94000000000001e-05	0.000382000000000004	0.000901999999999985	0.0016
0.73	6.89599999999999e-07	3.734e-06	6.64000000000003e-05	0.000370000000000001	0.000893999999999998	0.00151999999999999
0.735	6.72999999999999e-07	3.68699999999998e-06	6.93999999999998e-05	0.000376	0.000876000000000018	0.00143999999999998
0.74	6.188e-07	3.309e-06	6.13999999999996e-05	0.000378000000000001	0.000870000000000019	0.00150000000000001
0.745	5.61400000000001e-07	3.061e-06	5.96e-05	0.000360000000000004	0.000860000000000009	0.00154000000000001
0.75	4.638e-07	2.71599999999997e-06	6.26000000000001e-05	0.000352000000000004	0.000864000000000003	0.00147999999999999
0.755	4.23e-07	2.60899999999998e-06	5.99999999999998e-05	0.000358000000000003	0.000882	0.00146
0.76	4.74999999999999e-07	3.02e-06	5.97999999999999e-05	0.000350000000000003	0.000867999999999996	0.00148000000000002
0.765	4.81999999999999e-07	2.943e-06	6.34000000000002e-05	0.000347999999999997	0.000837999999999984	0.00144000000000002
0.77	5.04199999999998e-07	2.44599999999999e-06	6.34000000000002e-05	0.000363999999999993	0.000839999999999972	0.00136000000000001
0.775	5.792e-07	3.07999999999999e-06	6.46000000000001e-05	0.000365999999999995	0.000841999999999978	0.00129999999999998
0.78	5.74400000000001e-07	3.919e-06	6.66000000000002e-05	0.000359999999999995	0.000815999999999976	0.00131999999999997
0.785	5.23200000000001e-07	3.83700000000001e-06	6.58e-05	0.000361999999999997	0.000809999999999977	0.00133999999999999
0.79	5.30800000000001e-07	3.24400000000001e-06	6.73999999999997e-05	0.000352	0.000836000000000013	0.00128
0.795	5.39e-07	2.23700000000002e-06	6.98000000000001e-05	0.000338	0.000846000000000041	0.00130000000000002
0.8	5.388e-07	1.65500000000002e-06	6.60000000000006e-05	0.000346000000000001	0.000834000000000044	0.00140000000000005
0.805	5.75600000000001e-07	1.94000000000002e-06	6.08000000000002e-05	0.000350000000000004	0.000834000000000046	0.00142000000000004
0.81	5.87200000000002e-07	2.36900000000001e-06	6.15999999999998e-05	0.000344000000000001	0.000836000000000017	0.00138
0.815	5.27200000000001e-07	2.837e-06	6.22e-05	0.000357999999999996	0.000835999999999982	0.00135999999999998
0.82	4.60000000000002e-07	3.915e-06	6.02e-05	0.000375999999999997	0.000853999999999979	0.00131999999999997
0.825	4.654e-07	4.334e-06	5.91999999999998e-05	0.000369999999999998	0.000871999999999974	0.00123999999999996
0.83	4.63799999999998e-07	3.46499999999999e-06	6.04000000000001e-05	0.000359999999999995	0.00086199999999998	0.00119999999999995
0.835	4.41199999999998e-07	2.79999999999999e-06	6.46000000000001e-05	0.000354000000000001	0.000828000000000009	0.00121999999999997
0.84	4.95999999999999e-07	2.74499999999999e-06	6.83999999999998e-05	0.000342000000000007	0.00079400000000002	0.00123999999999999
0.845	5.718e-07	2.71499999999999e-06	6.71999999999998e-05	0.000336000000000004	0.000764000000000007	0.00123999999999999
0.85	6.07200000000001e-07	2.56799999999999e-06	6.56000000000001e-05	0.000333999999999998	0.000753999999999997	0.00126000000000001
0.855	6.57600000000002e-07	2.92199999999998e-06	6.52000000000003e-05	0.000335999999999999	0.000783999999999992	0.00124000000000002
0.86	7.03600000000002e-07	3.075e-06	6.00000000000003e-05	0.000348000000000002	0.00082399999999998	0.00122
0.865	7.18400000000001e-07	2.83300000000003e-06	5.50000000000002e-05	0.000358000000000003	0.000847999999999977	0.00128
0.87	7.284e-07	3.29000000000003e-06	5.96e-05	0.000360000000000004	0.000845999999999988	0.00130000000000002
0.875	6.75799999999998e-07	3.44600000000001e-06	6.67999999999995e-05	0.000370000000000005	0.000817999999999999	0.00126000000000001
0.88	5.62399999999998e-07	2.63100000000001e-06	6.25999999999995e-05	0.000376000000000005	0.000782000000000004	0.00123999999999999
0.885	5.01799999999999e-07	2.328e-06	5.66000000000005e-05	0.000363999999999998	0.000764000000000007	0.00120000000000002
0.89	4.81800000000001e-07	2.8e-06	5.80000000000014e-05	0.000351999999999991	0.000751999999999992	0.00112000000000008
0.895	3.89666666666671e-07	2.02500000000003e-06	4.66666666666687e-05	0.00033999999999999	0.000753333333333311	0.00103333333333344
0.9	6.20000000000004e-07	3.2900000000001e-06	5.80000000000024e-05	0.000339999999999975	0.000799999999999932	0.00100000000000031
