Vgs	Gm_Vds=0.01V	Gm_Vds=0.02V	Gm_Vds=0.03V	Gm_Vds=0.04V	Gm_Vds=0.05V	Gm_Vds=0.06V	Gm_Vds=0.07V	Gm_Vds=0.08V	Gm_Vds=0.09V	Gm_Vds=0.1V
-0.3	4.21999999999988e-09	4.14000000000003e-09	3.75999999999999e-09	7.53999999999999e-09	9.85999999999996e-09	1.094e-08	2.1102e-08	1.7684e-08	2.525e-08	1.44e-08
-0.295	3.20499999999994e-09	3.93166666666669e-09	4.30833333333332e-09	6.39666666666667e-09	9.23499999999997e-09	1.08416666666667e-08	1.76001666666666e-08	1.56091666666667e-08	1.98316666666666e-08	1.5065e-08
-0.29	2.59699999999997e-09	3.90100000000002e-09	4.987e-09	6.73400000000001e-09	8.517e-09	1.0475e-08	1.53566e-08	1.44063e-08	1.87481e-08	1.5569e-08
-0.285	2.19799999999999e-09	3.79000000000001e-09	5.699e-09	6.90600000000002e-09	8.53200000000001e-09	1.0742e-08	1.42761e-08	1.40133e-08	1.79289e-08	1.7303e-08
-0.28	2.167e-09	3.839e-09	6.279e-09	7.60500000000001e-09	9.30200000000002e-09	1.1527e-08	1.34746e-08	1.49351e-08	1.75885e-08	1.9368e-08
-0.275	2.568e-09	4.18e-09	6.99200000000001e-09	8.68000000000001e-09	1.0201e-08	1.2661e-08	1.44123e-08	1.64813e-08	1.91396e-08	2.1935e-08
-0.27	2.95e-09	4.83699999999999e-09	7.798e-09	9.697e-09	1.1337e-08	1.4068e-08	1.68142e-08	1.79393e-08	2.12542e-08	2.4952e-08
-0.265	3.274e-09	5.73999999999999e-09	8.65999999999999e-09	1.0892e-08	1.3228e-08	1.57839e-08	1.83482e-08	2.01902e-08	2.23235e-08	2.7149e-08
-0.26	3.813e-09	6.87399999999999e-09	9.71799999999999e-09	1.218e-08	1.5106e-08	1.77159e-08	1.96264e-08	2.29542e-08	2.37277e-08	2.8771e-08
-0.255	4.299e-09	8.089e-09	1.091e-08	1.3619e-08	1.6458e-08	1.9716e-08	2.22089e-08	2.50726e-08	2.69399e-08	3.1154e-08
-0.25	4.68899999999999e-09	9.066e-09	1.2429e-08	1.5638e-08	1.8221e-08	2.2043e-08	2.5051e-08	2.73586e-08	3.062e-08	3.3898e-08
-0.245	5.42299999999999e-09	1.0009e-08	1.4165e-08	1.7942e-08	2.073e-08	2.48591e-08	2.76587e-08	3.06337e-08	3.4016e-08	3.7251e-08
-0.24	6.41899999999999e-09	1.1439e-08	1.5674e-08	2.0229e-08	2.34e-08	2.78419e-08	3.14583e-08	3.42107e-08	3.8306e-08	4.2322e-08
-0.235	7.21499999999999e-09	1.3204e-08	1.7535e-08	2.2794e-08	2.62735e-08	3.12191e-08	3.57908e-08	3.77329e-08	4.3449e-08	4.8548e-08
-0.23	8.01499999999999e-09	1.4953e-08	2.0182e-08	2.543e-08	2.97228e-08	3.52052e-08	3.99932e-08	4.22665e-08	4.911e-08	5.4806e-08
-0.225	9.048e-09	1.6818e-08	2.2721e-08	2.7955e-08	3.37884e-08	3.94118e-08	4.49206e-08	4.78638e-08	5.5497e-08	6.195e-08
-0.22	1.0034e-08	1.9083e-08	2.5369e-08	3.0975e-08	3.80668e-08	4.43439e-08	5.01056e-08	5.34712e-08	6.2467e-08	6.9901e-08
-0.215	1.1089e-08	2.1699e-08	2.8906e-08	3.47813e-08	4.21831e-08	5.00428e-08	5.58451e-08	5.9646e-08	7.0097e-08	7.7837e-08
-0.21	1.2658e-08	2.4325e-08	3.2549e-08	3.95232e-08	4.69652e-08	5.54895e-08	6.28135e-08	6.7581e-08	7.9021e-08	8.6173e-08
-0.205	1.4577e-08	2.7189e-08	3.6557e-08	4.53031e-08	5.33119e-08	6.17638e-08	7.03709e-08	7.6852e-08	8.8475e-08	9.5574e-08
-0.2	1.6547e-08	3.0829e-08	4.19098e-08	5.20569e-08	6.03441e-08	7.01422e-08	7.86102e-08	8.6859e-08	9.8253e-08	1.06412e-07
-0.195	1.919e-08	3.504e-08	4.78352e-08	5.91671e-08	6.72273e-08	7.9583e-08	8.8467e-08	9.8214e-08	1.09781e-07	1.19458e-07
-0.19	2.2651e-08	3.9431e-08	5.38512e-08	6.68634e-08	7.59139e-08	9.02394e-08	1.0052e-07	1.11224e-07	1.23178e-07	1.35592e-07
-0.185	2.6005e-08	4.4382e-08	6.08428e-08	7.57641e-08	8.69543e-08	1.026615e-07	1.14707e-07	1.25223e-07	1.38641e-07	1.53951e-07
-0.18	2.929e-08	5.0501e-08	6.89805e-08	8.56419000000001e-08	9.86133e-08	1.16077e-07	1.30162e-07	1.40384e-07	1.57023e-07	1.74511e-07
-0.175	3.3312e-08	5.75508e-08	7.81564e-08	9.72201e-08	1.112915e-07	1.3071e-07	1.47294e-07	1.59392e-07	1.78988e-07	1.9782e-07
-0.17	3.8014e-08	6.52593e-08	8.90355e-08	1.108679e-07	1.267659e-07	1.47567e-07	1.6708e-07	1.82586e-07	2.03532e-07	2.23534e-07
-0.165	4.2912e-08	7.41359e-08	1.018288e-07	1.256183e-07	1.44505e-07	1.67226e-07	1.89036e-07	2.07023e-07	2.30757e-07	2.52317e-07
-0.16	4.8692e-08	8.46881e-08	1.161882e-07	1.417547e-07	1.63403e-07	1.90151e-07	2.14217e-07	2.33999e-07	2.61828e-07	2.852e-07
-0.155	5.5481e-08	9.68907e-08	1.320895e-07	1.61569e-07	1.85742e-07	2.16405e-07	2.44526e-07	2.66295e-07	2.96645e-07	3.22166e-07
-0.15	6.26047e-08	1.100262e-07	1.498958e-07	1.84135e-07	2.12927e-07	2.45604e-07	2.78295e-07	3.02095e-07	3.36209e-07	3.63912e-07
-0.145	7.07981e-08	1.249047e-07	1.705073e-07	2.08473e-07	2.43982e-07	2.78653e-07	3.15107e-07	3.41485e-07	3.81496e-07	4.12384e-07
-0.14	8.06442e-08	1.426311e-07	1.94593e-07	2.37416e-07	2.78951e-07	3.17271e-07	3.57041e-07	3.87153e-07	4.32128e-07	4.684e-07
-0.135	9.16519e-08	1.618629e-07	2.21368e-07	2.71015e-07	3.18428e-07	3.61451e-07	4.04114e-07	4.40375e-07	4.89604e-07	5.31628e-07
-0.13	1.047231e-07	1.827533e-07	2.5131e-07	3.08068e-07	3.62072e-07	4.10657e-07	4.56989e-07	5.01692e-07	5.55442e-07	6.02894e-07
-0.125	1.209893e-07	2.08136e-07	2.86587e-07	3.49923e-07	4.11778e-07	4.66591e-07	5.17936e-07	5.71034e-07	6.28066e-07	6.85376e-07
-0.12	1.387969e-07	2.38102e-07	3.25784e-07	3.98001e-07	4.68306e-07	5.2981e-07	5.8907e-07	6.49962e-07	7.11122e-07	7.80406e-07
-0.115	1.576368e-07	2.71627e-07	3.68788e-07	4.52444e-07	5.31486e-07	6.02108e-07	6.70946e-07	7.42158e-07	8.08964e-07	8.86016e-07
-0.11	1.802111e-07	3.10585e-07	4.20812e-07	5.13993e-07	6.05718e-07	6.85932e-07	7.63024e-07	8.44194e-07	9.18544e-07	1.00426e-06
-0.105	2.066219e-07	3.56153e-07	4.81462e-07	5.83636e-07	6.92268e-07	7.80986e-07	8.68306e-07	9.57166e-07	1.04442e-06	1.140558e-06
-0.1	2.34876e-07	4.08007e-07	5.47878e-07	6.6353e-07	7.86604e-07	8.88914e-07	9.8812e-07	1.090554e-06	1.191716e-06	1.29539e-06
-0.095	2.6741e-07	4.65476e-07	6.24876e-07	7.57048e-07	8.90372e-07	1.011398e-06	1.122878e-06	1.242088e-06	1.359584e-06	1.467932e-06
-0.09	3.06724e-07	5.28526e-07	7.136e-07	8.64668e-07	1.011346e-06	1.15073e-06	1.2794e-06	1.411794e-06	1.549846e-06	1.670068e-06
-0.085	3.50556e-07	6.00099e-07	8.13262e-07	9.86958e-07	1.15063e-06	1.310676e-06	1.457438e-06	1.603536e-06	1.763126e-06	1.908262e-06
-0.08	3.96982e-07	6.82216e-07	9.27236e-07	1.125208e-06	1.308684e-06	1.49298e-06	1.65127e-06	1.819222e-06	2.00386e-06	2.17422e-06
-0.075	4.48767e-07	7.71956e-07	1.05434e-06	1.281772e-06	1.491466e-06	1.698334e-06	1.87676e-06	2.06262e-06	2.282868e-06	2.474844e-06
-0.07	5.11096e-07	8.70906e-07	1.196204e-06	1.458656e-06	1.699544e-06	1.930462e-06	2.14925e-06	2.33628e-06	2.598724e-06	2.812082e-06
-0.065	5.84525e-07	9.8917e-07	1.36165e-06	1.657456e-06	1.934238e-06	2.19594e-06	2.452268e-06	2.655536e-06	2.94537e-06	3.193106e-06
-0.06	6.63922e-07	1.130632e-06	1.551514e-06	1.886624e-06	2.200618e-06	2.506674e-06	2.78905e-06	3.028796e-06	3.343998e-06	3.6438e-06
-0.055	7.55598e-07	1.290796e-06	1.767722e-06	2.15259e-06	2.509672e-06	2.866074e-06	3.179572e-06	3.448532e-06	3.807432e-06	4.15753e-06
-0.05	8.68504e-07	1.472862e-06	2.024644e-06	2.457128e-06	2.868738e-06	3.264868e-06	3.617718e-06	3.925918e-06	4.336462e-06	4.7268e-06
-0.045	9.92158e-07	1.6886e-06	2.330562e-06	2.805672e-06	3.2773e-06	3.716792e-06	4.113234e-06	4.470428e-06	4.9428e-06	5.3632e-06
-0.04	1.126602e-06	1.938292e-06	2.664414e-06	3.205746e-06	3.740532e-06	4.242126e-06	4.688658e-06	5.0882e-06	5.6318e-06	6.0898e-06
-0.035	1.287458e-06	2.21863e-06	3.026912e-06	3.660028e-06	4.2643e-06	4.826884e-06	5.3506e-06	5.8198e-06	6.4268e-06	6.948e-06
-0.03	1.472402e-06	2.541954e-06	3.438998e-06	4.170782e-06	4.844212e-06	5.4798e-06	6.1046e-06	6.6742e-06	7.321e-06	7.9342e-06
-0.025	1.676772e-06	2.909654e-06	3.912414e-06	4.744172e-06	5.514e-06	6.2622e-06	6.9658e-06	7.6296e-06	8.3062e-06	9.0404e-06
-0.02	1.905434e-06	3.308668e-06	4.456598e-06	5.4008e-06	6.307e-06	7.168e-06	7.9472e-06	8.6902e-06	9.4524e-06	1.03336e-05
-0.015	2.17282e-06	3.761452e-06	5.0726e-06	6.1662e-06	7.1876e-06	8.1496e-06	9.0416e-06	9.864e-06	1.07628e-05	1.17986e-05
-0.01	2.483992e-06	4.302144e-06	5.7666e-06	7.055e-06	8.1826e-06	9.2434e-06	1.03048e-05	1.119e-05	1.22136e-05	1.34056e-05
-0.005	2.83894e-06	4.900906e-06	6.5778e-06	8.0564e-06	9.3302e-06	1.05234e-05	1.17866e-05	1.27486e-05	1.39424e-05	1.52558e-05
0	3.229624e-06	5.5618e-06	7.5466e-06	9.1684e-06	1.06112e-05	1.20118e-05	1.34514e-05	1.4521e-05	1.59704e-05	1.74036e-05
0.005	3.668484e-06	6.347e-06	8.6236e-06	1.04564e-05	1.20964e-05	1.37186e-05	1.53274e-05	1.65424e-05	1.82276e-05	1.98256e-05
0.01	4.18793e-06	7.2194e-06	9.8398e-06	1.19218e-05	1.38318e-05	1.56754e-05	1.74876e-05	1.89294e-05	2.08592e-05	2.25694e-05
0.015	4.790408e-06	8.1774e-06	1.12542e-05	1.3533e-05	1.57568e-05	1.78968e-05	1.99664e-05	2.16984e-05	2.38542e-05	2.5721e-05
0.02	5.4574e-06	9.3548e-06	1.27822e-05	1.53896e-05	1.7941e-05	2.04104e-05	2.27116e-05	2.4822e-05	2.7149e-05	2.92856e-05
0.025	6.232e-06	1.07444e-05	1.4461e-05	1.7544e-05	2.05198e-05	2.32578e-05	2.57574e-05	2.81922e-05	3.09202e-05	3.3353e-05
0.03	7.1492e-06	1.22692e-05	1.6519e-05	2.0043e-05	2.34364e-05	2.6451e-05	2.93034e-05	3.18548e-05	3.5223e-05	3.80072e-05
0.035	8.1392e-06	1.39902e-05	1.89382e-05	2.29132e-05	2.65958e-05	3.00228e-05	3.33622e-05	3.60454e-05	3.9956e-05	4.31682e-05
0.04	9.233e-06	1.59896e-05	2.1608e-05	2.61146e-05	3.01992e-05	3.41816e-05	3.79892e-05	4.09422e-05	4.5256e-05	4.9036e-05
0.045	1.0517e-05	1.8236e-05	2.46764e-05	2.97354e-05	3.44234e-05	3.90562e-05	4.34326e-05	4.66534e-05	5.1461e-05	5.5769e-05
0.05	1.19732e-05	2.07456e-05	2.81502e-05	3.39542e-05	3.92466e-05	4.4482e-05	4.961e-05	5.3357e-05	5.8648e-05	6.3298e-05
0.055	1.36284e-05	2.36084e-05	3.19544e-05	3.87138e-05	4.468e-05	5.0528e-05	5.6287e-05	6.1115e-05	6.6682e-05	7.1874e-05
0.06	1.55282e-05	2.68638e-05	3.61868e-05	4.40476e-05	5.0917e-05	5.7572e-05	6.3888e-05	6.9736e-05	7.5809e-05	8.1863e-05
0.065	1.769e-05	3.05324e-05	4.09314e-05	5.0189e-05	5.8131e-05	6.563e-05	7.2813e-05	7.9229e-05	8.6399e-05	9.3342e-05
0.07	2.01912e-05	3.47508e-05	4.63126e-05	5.7077e-05	6.6197e-05	7.4634e-05	8.2778e-05	8.9792e-05	9.8667e-05	0.00010632
0.075	2.30316e-05	3.96582e-05	5.2399e-05	6.4791e-05	7.5155e-05	8.4861e-05	9.3901e-05	0.000101806	0.000112528	0.000120973
0.08	2.60952e-05	4.50878e-05	5.9474e-05	7.3646e-05	8.55e-05	9.6558e-05	0.000106757	0.000115744	0.000127955	0.000137745
0.085	2.95676e-05	5.1122e-05	6.7647e-05	8.3789e-05	9.7733e-05	0.000109983	0.000121431	0.000131883	0.000145418	0.000156596
0.09	3.36212e-05	5.8083e-05	7.6981e-05	9.5121e-05	0.000111432	0.000125026	0.000137926	0.000150362	0.000165182	0.000177524
0.095	3.79406e-05	6.5851e-05	8.7834e-05	0.000107865	0.000126205	0.000141617	0.000156626	0.000171223	0.0001872	0.000201424
0.1	4.27378e-05	7.4634e-05	0.000100015	0.000122477	0.00014308	0.000160545	0.00017789	0.000194744	0.000212204	0.000228202
0.105	4.8171e-05	8.4475e-05	0.000113509	0.000139094	0.000162382	0.000182273	0.000202112	0.00022115	0.000240697	0.000258293
0.11	5.4248e-05	9.5542e-05	0.000128889	0.000157943	0.000183164	0.000206428	0.000229356	0.000250443	0.000272783	0.000292788
0.115	6.1293e-05	0.000108567	0.000146267	0.000179317	0.000207118	0.000234188	0.000259513	0.000283029	0.000309403	0.000331954
0.12	6.948e-05	0.000122887	0.000165122	0.000203291	0.00023572	0.00026669	0.000293858	0.00032012	0.000350483	0.000376554
0.125	7.8372e-05	0.000138255	0.000186446	0.000230125	0.000267214	0.000302781	0.000333267	0.000362403	0.000395933	0.000426814
0.13	8.7822e-05	0.000156	0.000211286	0.000260756	0.000302059	0.000341944	0.000377176	0.000409681	0.000447463	0.0004815
0.135	9.8852e-05	0.000176634	0.000238883	0.000295268	0.000341858	0.000385926	0.000426157	0.00046292	0.00050618	0.0005435
0.14	0.000111082	0.000199632	0.000269528	0.000333303	0.000386563	0.000435999	0.00048202	0.00052362	0.00057176	0.0006155
0.145	0.000124487	0.000225241	0.000305025	0.000376175	0.000437081	0.00049234	0.00054552	0.00059374	0.000647	0.00069518
0.15	0.000140145	0.000254194	0.000344595	0.000424826	0.00049414	0.0005557	0.00061574	0.00067288	0.00073256	0.00078414
0.155	0.000157754	0.000286533	0.000387875	0.00047852	0.00055752	0.00062766	0.00069478	0.0007603	0.00082712	0.00088724
0.16	0.000176867	0.000321535	0.00043724	0.00053866	0.0006293	0.00070938	0.00078562	0.00085774	0.0009332	0.00100226
0.165	0.000198289	0.000359871	0.00049272	0.00060766	0.00071068	0.000801	0.00088832	0.00096802	0.00105294	0.0011289
0.17	0.000222179	0.000404516	0.0005541	0.00068536	0.0008008	0.00090316	0.00100028	0.00109196	0.00118558	0.00127454
0.175	0.00024911	0.0004551	0.00062356	0.0007731	0.00090234	0.0010187	0.00112464	0.00123084	0.0013341	0.00144
0.18	0.00027936	0.00051014	0.00070236	0.00087128	0.00101712	0.0011496	0.00126938	0.00138872	0.00150504	0.00162318
0.185	0.000312024	0.00057324	0.00078976	0.00098038	0.0011435	0.00129538	0.00143266	0.00156556	0.0016969	0.00182874
0.19	0.000348954	0.00064436	0.00088654	0.0011031	0.00128332	0.00145706	0.00161078	0.00176026	0.00191028	0.00206204
0.195	0.000391229	0.00072162	0.000996520000000001	0.00124066	0.0014446	0.00163726	0.0018124	0.0019812	0.00215352	0.00231996
0.2	0.00043734	0.00080758	0.0011197	0.00139194	0.00162792	0.0018384	0.00204372	0.00223266	0.00242424	0.00260234
0.205	0.00048754	0.00090272	0.00125288	0.00155834	0.00182594	0.0020612	0.00229332	0.00250458	0.00271788	0.00291362
0.21	0.00054408	0.00100876	0.0014007	0.00174548	0.00204712	0.00231258	0.00256698	0.00280636	0.00304464	0.0032608
0.215	0.0006068	0.00112896	0.00156778	0.00195652	0.0022993	0.00259734	0.00287738	0.00314782	0.00340618	0.00364586
0.22	0.00067392	0.001261	0.00175402	0.00219244	0.00257188	0.00291068	0.00322146	0.00351998	0.0038016	0.00407494
0.225	0.00074774	0.0014042	0.00195916	0.0024501	0.00286674	0.00324962	0.0035977	0.00392528	0.0042436	0.0045562
0.23	0.00083268	0.00156404	0.00218726	0.0027318	0.003197	0.00362078	0.004011	0.0043786	0.0047336	0.0050816
0.235	0.0009259	0.00173782	0.00243786	0.00304026	0.00355528	0.0040271	0.0044638	0.0048836	0.0052668	0.0056522
0.24	0.00102476	0.00192526	0.00270548	0.00337138	0.00394452	0.0044672	0.0049572	0.0054316	0.0058582	0.0062772
0.245	0.00113316	0.00213362	0.00299342	0.00372758	0.004379	0.0049536	0.0054978	0.0060212	0.006501	0.006954
0.25	0.00125038	0.00235808	0.00330976	0.0041202	0.004853	0.0054948	0.0060878	0.0066592	0.00718459999999999	0.00768679999999999
0.255	0.0013719	0.0025957	0.0036543	0.00455	0.00536059999999999	0.0060772	0.00672879999999999	0.00734159999999999	0.00793219999999999	0.00848919999999999
0.26	0.00150184	0.00285624	0.0040232	0.0050138	0.0059082	0.006698	0.00741859999999999	0.0080756	0.00875059999999999	0.00935359999999999
0.265	0.0016431	0.00313542	0.0044158	0.0055132	0.0065034	0.00736719999999999	0.00815499999999999	0.00889039999999999	0.00961419999999999	0.0102728
0.27	0.0017954	0.00342532	0.004827	0.0060432	0.0071302	0.0080822	0.008945	0.00976800000000001	0.0105356	0.0112628
0.275	0.0019621	0.00373440000000001	0.00526380000000001	0.00660540000000001	0.00777540000000001	0.00884200000000002	0.00979540000000002	0.0106844	0.0115384	0.0123192
0.28	0.00213504	0.00406020000000001	0.00573460000000001	0.00720280000000001	0.00847620000000001	0.00965860000000002	0.0107032	0.0116712	0.0125934	0.0134324
0.285	0.00230822	0.00440160000000001	0.00622300000000001	0.00782780000000001	0.00924140000000001	0.0105244	0.0116566	0.0127174	0.0137024	0.0146166
0.29	0.0024874	0.004757	0.00671800000000001	0.00847260000000001	0.010012	0.011418	0.0126476	0.0137758	0.0148728	0.0158576
0.295	0.00266572	0.0051182	0.00725	0.0091548	0.0108116	0.0123476	0.0137004	0.0148988	0.016085	0.0171512
0.3	0.0028409	0.00549059999999999	0.00781039999999999	0.00986779999999999	0.011675	0.0133012	0.0147954	0.0161112	0.0173546	0.0185108
0.305	0.003028	0.00587479999999999	0.00836779999999999	0.0105886	0.0125452	0.0142874	0.0159018	0.0173592	0.0186966	0.0199318
0.31	0.0032246	0.00626179999999999	0.00895159999999999	0.0113302	0.0134258	0.0153256	0.0170518	0.0186392	0.0200658	0.0213886
0.315	0.0034186	0.00665299999999999	0.00956299999999999	0.0120942	0.0143574	0.0163866	0.01826	0.0199598	0.0214718	0.0228884
0.32	0.0036166	0.0070546	0.0101474	0.012851	0.015301	0.0174616	0.0194992	0.0213038	0.0229284	0.024444
0.325	0.003824	0.0074568	0.0107094	0.013601	0.0162404	0.0185706	0.0207592	0.0226566	0.0244062	0.0260254
0.33	0.0040228	0.0078494	0.0112944	0.0143636	0.0172112	0.0196952	0.0220122	0.0240136	0.025894	0.027624
0.335	0.00421120000000001	0.00823340000000001	0.0118864	0.0151458	0.0181804	0.020811	0.0232454	0.025392	0.027392	0.0292640000000001
0.34	0.00439380000000001	0.00860980000000001	0.0124538	0.0159472	0.0191092	0.0219094	0.024496	0.026814	0.02891	0.030924
0.345	0.00455960000000001	0.00897260000000001	0.0130058	0.0167188	0.020026	0.0229972	0.025738	0.028228	0.030434	0.03253
0.35	0.00470380000000001	0.00931820000000001	0.01355	0.0174218	0.0209198	0.024096	0.026944	0.029588	0.031956	0.034104
0.355	0.0048428	0.0096434	0.014055	0.0180852	0.021756	0.02515	0.028144	0.030964	0.033464	0.0357
0.36	0.0049802	0.00993999999999999	0.0145014	0.018717	0.022568	0.026126	0.029328	0.032322	0.03495	0.037262
0.365	0.0051208	0.0102068	0.0149444	0.019294	0.02336	0.027102	0.030458	0.03359	0.036376	0.038788
0.37	0.00526859999999999	0.0104442	0.0153944	0.019854	0.024112	0.02804	0.031528	0.034808	0.037714	0.040316
0.375	0.00538199999999999	0.0106622	0.0157766	0.02042	0.024834	0.028844	0.03254	0.035972	0.038996	0.041786
0.38	0.00545519999999999	0.0108624	0.016093	0.02094	0.025474	0.029592	0.033504	0.037068	0.040246	0.043186
0.385	0.0055228	0.0110416	0.01637	0.02139	0.026024	0.030356	0.034414	0.038092	0.041442	0.044524
0.39	0.00558339999999999	0.0112018	0.01659	0.021776	0.02656	0.031068	0.035236	0.03903	0.042552	0.045756
0.395	0.005604	0.011334	0.016778	0.0221	0.027044	0.031678	0.03598	0.039898	0.043596	0.046938
0.4	0.00561620000000001	0.0114392	0.016966	0.022368	0.02742	0.0322220000000001	0.0366580000000001	0.0407060000000001	0.0445240000000001	0.0480900000000001
0.405	0.00564260000000001	0.0115182	0.017106	0.022578	0.027774	0.0327000000000001	0.0372520000000001	0.0414120000000001	0.0453500000000001	0.0491020000000001
0.41	0.00563400000000001	0.011567	0.017212	0.022756	0.028108	0.0331040000000001	0.0377840000000001	0.0421220000000001	0.0462180000000001	0.0500560000000001
0.415	0.00560360000000001	0.011588	0.017302	0.022904	0.028294	0.0334100000000001	0.038224	0.0428140000000001	0.0469900000000001	0.0509580000000001
0.42	0.0056046	0.011576	0.017302	0.02298	0.028384	0.03362	0.038564	0.043328	0.04758	0.051682
0.425	0.00559579999999999	0.011506	0.01725	0.022982	0.028468	0.033778	0.038828	0.043736	0.048144	0.052298
0.43	0.005564	0.011414	0.017218	0.022942	0.02847	0.03388	0.03898	0.044042	0.048592	0.05283
0.435	0.005543	0.011316	0.01713	0.022836	0.028384	0.033878	0.039036	0.044154	0.0487699999999999	0.0532079999999999
0.44	0.005457	0.011172	0.016976	0.022694	0.02831	0.033782	0.039074	0.0442	0.0489039999999999	0.05349
0.445	0.0053302	0.01103	0.01684	0.022572	0.028206	0.03367	0.03905	0.044232	0.04908	0.05372
0.45	0.00528	0.01092	0.016664	0.022408	0.027994	0.033508	0.038938	0.044134	0.049094	0.053838
0.455	0.0052356	0.010784	0.01644	0.02216	0.027726	0.033238	0.038794	0.043992	0.048992	0.05382
0.46	0.00513580000000001	0.010608	0.016222	0.021884	0.027422	0.032948	0.0385660000000001	0.0438180000000001	0.0488460000000001	0.0537020000000001
0.465	0.00507300000000001	0.010448	0.015972	0.021574	0.027064	0.032702	0.0382320000000001	0.0435000000000001	0.0486380000000001	0.0535380000000001
0.47	0.0050214	0.010272	0.015692	0.021184	0.026696	0.032396	0.0378240000000001	0.0430980000000001	0.0483400000000001	0.0533080000000001
0.475	0.00488480000000001	0.010054	0.015438	0.02082	0.026372	0.031984	0.0373560000000001	0.0426880000000001	0.0479520000000001	0.0530180000000001
0.48	0.0047182	0.00986	0.015168	0.020528	0.02604	0.031518	0.03685	0.042256	0.04756	0.05273
0.485	0.00460299999999999	0.00968399999999999	0.014852	0.020196	0.025618	0.031018	0.036344	0.041796	0.047142	0.052346
0.49	0.0045252	0.00948799999999999	0.014558	0.019822	0.025182	0.030508	0.03587	0.041302	0.046598	0.051814
0.495	0.004453	0.009312	0.01425	0.01946	0.024742	0.029974	0.035356	0.040774	0.046018	0.0512239999999999
0.5	0.0043588	0.00914799999999999	0.013906	0.019056	0.024202	0.02943	0.0347719999999999	0.040158	0.045442	0.0505459999999999
