Vds	Gm_Vgs=0.15V	Gm_Vgs=0.3V	Gm_Vgs=0.45V	Gm_Vgs=0.6V	Gm_Vgs=0.75V	Gm_Vgs=0.9V
0	8.9808e-05	0.00674142	0.0164776	0.015868	0.181708	0.201428
0.005	8.86106666666667e-05	0.00634998	0.0453024333333333	0.0853746	0.180563666666667	0.200293
0.01	8.15072e-05	0.005754228	0.054517	0.11157928	0.1791752	0.199388
0.015	7.40836e-05	0.005212724	0.06271848	0.13501768	0.1777856	0.1984164
0.02	6.52248e-05	0.004619811	0.0653555	0.14624496	0.1764924	0.197604
0.025	5.55948e-05	0.00406574	0.06001254	0.13896252	0.175271	0.1968922
0.03	4.68774e-05	0.00357706	0.0544914	0.130964	0.174064	0.196194
0.035	4.0066e-05	0.0031383	0.051537	0.128746	0.173002	0.195624
0.04	3.4497e-05	0.00274792	0.048642	0.12646	0.171908	0.195064
0.045	2.9854e-05	0.002414	0.045818	0.124016	0.170628	0.194736
0.05	2.6063e-05	0.002131	0.043118	0.121574	0.169302	0.194602
0.055	2.2597e-05	0.0018862	0.040526	0.119116	0.168138	0.193982
0.06	1.9525e-05	0.0016772	0.038032	0.116582	0.167208	0.193124
0.065	1.7044e-05	0.0014984	0.035612	0.113918	0.165908	0.19223
0.07	1.5129e-05	0.0013462	0.03331	0.111268	0.16429	0.190984
0.075	1.3585e-05	0.0012154	0.031156	0.10868	0.162772	0.189566
0.08	1.2227e-05	0.0010986	0.029102	0.105994	0.160964	0.18854
0.085	1.1172e-05	0.000998	0.02715	0.103512	0.158858	0.18774
0.09	1.058e-05	0.0009182	0.025362	0.101396	0.15712	0.1869
0.095	1.0132e-05	0.0008516	0.023712	0.0990500000000001	0.15562	0.18604
0.1	9.57999999999999e-06	0.0007916	0.02213	0.096372	0.15398	0.18506
0.105	9.184e-06	0.0007418	0.020634	0.093682	0.15234	0.1841
0.11	9.078e-06	0.0007024	0.01925	0.090754	0.1506	0.1832
0.115	8.795e-06	0.000663	0.017962	0.087548	0.1488	0.18218
0.12	8.278e-06	0.0006238	0.016752	0.08448	0.14696	0.18104
0.125	8.143e-06	0.0005968	0.015658	0.08166	0.14498	0.18
0.13	8.11300000000001e-06	0.0005748	0.014678	0.0789	0.14288	0.17882
0.135	7.71400000000001e-06	0.0005534	0.01378	0.07622	0.14084	0.17744
0.14	7.456e-06	0.0005398	0.012952	0.07358	0.1389	0.17616
0.145	7.512e-06	0.0005296	0.012192	0.07096	0.13694	0.175
0.15	7.226e-06	0.0005166	0.011502	0.06842	0.13496	0.1738
0.155	7.062e-06	0.0005074	0.01086	0.06592	0.13298	0.1726
0.16	7.443e-06	0.000503200000000001	0.010266	0.0634	0.1309	0.17146
0.165	7.79300000000001e-06	0.000497800000000001	0.009758	0.0609	0.1287	0.17034
0.17	7.49800000000001e-06	0.000493200000000001	0.009292	0.05852	0.12654	0.16908
0.175	7.02200000000001e-06	0.00049	0.00882800000000001	0.0562	0.1244	0.16764
0.18	7.36400000000001e-06	0.000488	0.008434	0.05396	0.12228	0.16626
0.185	7.412e-06	0.000482999999999999	0.00809199999999999	0.0518	0.12008	0.16474
0.19	6.62799999999999e-06	0.000475399999999999	0.00776199999999999	0.0496399999999999	0.11774	0.16308
0.195	6.736e-06	0.00047	0.00749399999999999	0.04746	0.11542	0.16164
0.2	7.32599999999999e-06	0.000465600000000001	0.00728399999999999	0.04538	0.1131	0.16034
0.205	6.68799999999999e-06	0.000461	0.007062	0.0434	0.11068	0.15884
0.21	6.542e-06	0.000456	0.00685200000000001	0.04142	0.10836	0.15732
0.215	7.28299999999999e-06	0.0004532	0.006684	0.03964	0.10614	0.15592
0.22	6.98999999999999e-06	0.000453199999999999	0.006512	0.03804	0.10384	0.15436
0.225	6.89100000000001e-06	0.000454599999999999	0.006334	0.0363800000000001	0.1015	0.15264
0.23	7.40500000000001e-06	0.000456599999999999	0.006168	0.0347800000000001	0.0991800000000001	0.15098
0.235	6.947e-06	0.000457	0.006032	0.03328	0.0969200000000001	0.14938
0.24	6.51500000000001e-06	0.0004538	0.00594	0.03172	0.0945600000000001	0.1476
0.245	7.125e-06	0.0004506	0.00583599999999999	0.0303	0.0921000000000001	0.14578
0.25	7.356e-06	0.0004502	0.00571399999999998	0.02902	0.0897200000000001	0.144
0.255	6.878e-06	0.0004492	0.00564199999999999	0.02772	0.0874	0.1422
0.26	6.85e-06	0.000450399999999999	0.00556999999999999	0.0266	0.08496	0.14044
0.265	6.98999999999999e-06	0.000455399999999999	0.005456	0.02566	0.08254	0.13872
0.27	6.576e-06	0.0004576	0.00538000000000002	0.02466	0.0802800000000001	0.13698
0.275	6.27400000000002e-06	0.000455400000000001	0.00533600000000003	0.02366	0.0780400000000001	0.13522
0.28	6.72500000000001e-06	0.000452800000000001	0.00527600000000002	0.02276	0.0758	0.13332
0.285	7.005e-06	0.000451200000000002	0.00524000000000002	0.02186	0.07358	0.13126
0.29	6.69700000000002e-06	0.000448200000000001	0.00520200000000001	0.0209400000000001	0.07142	0.1293
0.295	6.92100000000001e-06	0.0004474	0.00514399999999999	0.02006	0.0692399999999999	0.1273
0.3	6.95999999999999e-06	0.000448999999999999	0.00510999999999998	0.01936	0.0669999999999999	0.12526
0.305	6.464e-06	0.000443999999999999	0.00506199999999999	0.01876	0.0647999999999999	0.1233
0.31	6.698e-06	0.000436599999999999	0.004992	0.01812	0.0627	0.12128
0.315	7.10999999999999e-06	0.0004396	0.00495199999999999	0.0175799999999999	0.0606	0.11916
0.32	6.73299999999998e-06	0.0004468	0.00491199999999999	0.01718	0.0585400000000001	0.11712
0.325	6.34799999999998e-06	0.0004506	0.00485400000000001	0.01674	0.05668	0.1151
0.33	6.82e-06	0.0004532	0.00484000000000001	0.0162	0.0548600000000001	0.11306
0.335	7.51800000000002e-06	0.000452800000000001	0.00483400000000001	0.0156800000000001	0.0529800000000002	0.11112
0.34	7.76800000000002e-06	0.000450800000000001	0.00478200000000001	0.0152800000000001	0.0512000000000001	0.10908
0.345	7.67600000000002e-06	0.000451800000000001	0.004762	0.01494	0.04944	0.10684
0.35	7.61700000000001e-06	0.000451600000000001	0.00477599999999999	0.01458	0.0476600000000001	0.10462
0.355	7.319e-06	0.00045	0.00475399999999999	0.01436	0.04602	0.10252
0.36	6.56699999999999e-06	0.0004526	0.004716	0.0141999999999999	0.0444399999999999	0.10042
0.365	6.12699999999999e-06	0.000453999999999999	0.004694	0.01384	0.0429199999999999	0.0984199999999999
0.37	6.266e-06	0.000448599999999999	0.004674	0.01346	0.04154	0.0964999999999998
0.375	6.72100000000001e-06	0.0004434	0.004624	0.01324	0.04014	0.0944199999999999
0.38	7.02500000000001e-06	0.0004498	0.004572	0.01304	0.03864	0.0921999999999999
0.385	6.96899999999999e-06	0.000458199999999999	0.004566	0.01284	0.03726	0.09004
0.39	7.05699999999998e-06	0.000457999999999999	0.004574	0.01268	0.0360199999999999	0.0878999999999999
0.395	7.37899999999999e-06	0.000457	0.00455799999999999	0.01248	0.0347399999999999	0.08566
0.4	7.412e-06	0.0004606	0.00456	0.0122	0.0335200000000001	0.0835200000000001
0.405	7.30200000000001e-06	0.000457200000000001	0.00455199999999999	0.01188	0.0325000000000001	0.0816000000000001
0.41	7.52700000000001e-06	0.000449800000000001	0.00449399999999999	0.01172	0.03148	0.0796600000000001
0.415	7.63500000000001e-06	0.000454800000000001	0.004458	0.01178	0.0303600000000001	0.0776600000000002
0.42	7.45300000000001e-06	0.0004622	0.00444800000000001	0.0117799999999999	0.0294000000000001	0.0758000000000001
0.425	7.622e-06	0.000462799999999999	0.00443800000000001	0.0116799999999999	0.0285199999999999	0.0739199999999998
0.43	7.999e-06	0.000466599999999999	0.004454	0.0116	0.0275799999999999	0.0718799999999998
0.435	7.906e-06	0.000474999999999999	0.004454	0.01138	0.0267999999999999	0.0698799999999998
0.44	7.65199999999998e-06	0.000475399999999999	0.00442	0.01102	0.0261	0.0679399999999998
0.445	7.79799999999997e-06	0.000469	0.004418	0.01078	0.0253400000000001	0.0659599999999999
0.45	7.90099999999998e-06	0.0004654	0.004424	0.01072	0.0246600000000001	0.06406
0.455	8.14799999999999e-06	0.000462200000000001	0.00439600000000001	0.01078	0.0240200000000001	0.0622400000000002
0.46	8.465e-06	0.000458000000000001	0.00439600000000002	0.01086	0.0233400000000001	0.0604200000000003
0.465	7.78400000000002e-06	0.000459000000000001	0.004398	0.01076	0.0227200000000001	0.0586800000000001
0.47	6.98200000000003e-06	0.000464200000000001	0.004354	0.0105	0.0221199999999999	0.05704
0.475	6.98800000000002e-06	0.0004678	0.00431600000000001	0.01028	0.0215399999999999	0.05542
0.48	6.566e-06	0.000470399999999999	0.00429000000000001	0.01014	0.0210199999999999	0.0538199999999999
0.485	6.04699999999999e-06	0.000471599999999999	0.004288	0.01002	0.0205599999999999	0.0522599999999998
0.49	7.19099999999999e-06	0.000468599999999999	0.00430599999999999	0.01002	0.0201999999999999	0.05066
0.495	8.42199999999999e-06	0.000466199999999999	0.00431	0.0102	0.0198599999999999	0.0491400000000001
0.5	8.20899999999999e-06	0.000464399999999999	0.004304	0.01028	0.01948	0.0477000000000001
0.505	7.78799999999999e-06	0.000465	0.00429999999999999	0.01012	0.0190800000000001	0.0461800000000001
0.51	8.123e-06	0.0004684	0.004272	0.01002	0.01864	0.0447400000000002
0.515	8.85099999999999e-06	0.0004678	0.00424599999999999	0.01004	0.01822	0.0435000000000002
0.52	9.20099999999999e-06	0.00047	0.00423399999999999	0.00997999999999995	0.0178800000000001	0.04226
0.525	9.34099999999999e-06	0.0004784	0.00422599999999999	0.00981999999999992	0.0175	0.04094
0.53	9.50399999999999e-06	0.0004826	0.004268	0.00967999999999992	0.0172199999999999	0.0396600000000001
0.535	9.085e-06	0.000483599999999999	0.004296	0.00963999999999992	0.0170999999999999	0.0384600000000001
0.54	8.32300000000001e-06	0.000486399999999999	0.00426	0.00957999999999996	0.0167799999999999	0.03732
0.545	8.28500000000001e-06	0.000481	0.004222	0.00950000000000002	0.0163199999999999	0.0361799999999998
0.55	8.50400000000003e-06	0.000467400000000001	0.0042	0.00954000000000005	0.0161	0.03516
0.555	8.25300000000003e-06	0.000459000000000002	0.004168	0.00960000000000006	0.0159800000000001	0.03434
0.56	7.99500000000002e-06	0.000459800000000002	0.004162	0.00950000000000006	0.0157200000000001	0.0334199999999998
0.565	7.88000000000003e-06	0.000463000000000002	0.004192	0.00936000000000006	0.01552	0.0323399999999998
0.57	8.03200000000003e-06	0.000467800000000002	0.00421200000000001	0.00930000000000007	0.0155	0.0314000000000002
0.575	8.47900000000001e-06	0.0004776	0.00421000000000001	0.00922000000000007	0.01538	0.0305600000000001
0.58	8.59199999999999e-06	0.000487599999999999	0.00419400000000001	0.00910000000000004	0.0150799999999999	0.0296599999999998
0.585	8.636e-06	0.0004918	0.004184	0.00901999999999999	0.01482	0.02886
0.59	9.00399999999999e-06	0.000490599999999999	0.00417199999999999	0.00903999999999998	0.01468	0.0282200000000002
0.595	8.82099999999999e-06	0.000487399999999999	0.004148	0.00909999999999997	0.01454	0.02754
0.6	7.99599999999999e-06	0.0004832	0.00413999999999999	0.00909999999999993	0.01438	0.0267200000000001
0.605	8.02199999999999e-06	0.000480599999999999	0.00413999999999999	0.00909999999999993	0.01432	0.0260600000000002
0.61	9.19099999999999e-06	0.000482799999999998	0.00412400000000001	0.00911999999999995	0.01424	0.0255200000000001
0.615	9.54999999999999e-06	0.000484799999999998	0.00412400000000002	0.00907999999999995	0.01404	0.0248399999999998
0.62	9.211e-06	0.000486399999999998	0.00413200000000001	0.00897999999999995	0.01384	0.0242199999999999
0.625	9.75399999999999e-06	0.000495999999999999	0.00410800000000001	0.00893999999999998	0.01368	0.02376
0.63	1.0345e-05	0.0005044	0.00407799999999999	0.00890000000000001	0.01342	0.0233199999999999
0.635	1.0209e-05	0.000500600000000001	0.00403799999999998	0.00880000000000001	0.01326	0.0228199999999999
0.64	9.55899999999999e-06	0.0004966	0.00401199999999998	0.00882	0.0133399999999999	0.0222800000000001
0.645	8.77899999999999e-06	0.000498400000000001	0.00403399999999998	0.00890000000000001	0.0133	0.0217399999999999
0.65	8.589e-06	0.000498200000000001	0.00405199999999998	0.00892000000000003	0.0131	0.0213199999999999
0.655	8.41e-06	0.000492199999999999	0.004064	0.00886000000000001	0.01302	0.0208600000000002
0.66	7.58699999999999e-06	0.000484399999999999	0.00410800000000001	0.00872	0.01298	0.0203600000000002
0.665	8.04399999999998e-06	0.000485600000000001	0.00413000000000001	0.00856000000000005	0.01282	0.0200200000000002
0.67	9.01599999999997e-06	0.000496000000000001	0.004116	0.00844000000000004	0.0127	0.0197000000000001
0.675	8.555e-06	0.000497600000000001	0.004106	0.00842	0.0126600000000001	0.0193200000000001
0.68	8.90800000000003e-06	0.000492000000000003	0.004064	0.00854000000000004	0.0125400000000002	0.01898
0.685	9.53100000000004e-06	0.000500000000000003	0.004038	0.00876000000000005	0.0123400000000001	0.0187399999999999
0.69	8.49300000000005e-06	0.000508800000000002	0.00407800000000001	0.00886000000000001	0.0122600000000001	0.0185199999999999
0.695	8.39900000000005e-06	0.000502600000000001	0.00407200000000004	0.00874000000000003	0.0123000000000001	0.01828
0.7	9.32400000000001e-06	0.000498999999999999	0.00401800000000004	0.00854000000000005	0.0122799999999999	0.0180000000000001
0.705	9.01299999999999e-06	0.000508999999999998	0.00404600000000001	0.0084	0.0122599999999999	0.0176999999999999
0.71	9.05499999999999e-06	0.000519599999999999	0.004076	0.00827999999999995	0.0122999999999999	0.0173999999999999
0.715	9.98599999999998e-06	0.0005176	0.00400599999999999	0.00821999999999996	0.0122	0.0170800000000001
0.72	1.0508e-05	0.000510600000000001	0.00398399999999996	0.00835999999999996	0.01198	0.0168000000000001
0.725	1.1026e-05	0.0005118	0.00406599999999996	0.00845999999999995	0.0118599999999999	0.0165799999999999
0.73	1.0888e-05	0.000514199999999999	0.004092	0.00838000000000001	0.0118399999999999	0.0163199999999999
0.735	9.59899999999998e-06	0.000507799999999998	0.00406600000000001	0.00834000000000004	0.01184	0.016
0.74	9.56799999999998e-06	0.000506599999999997	0.00407600000000001	0.00835999999999999	0.01182	0.0158199999999998
0.745	9.89499999999999e-06	0.000516799999999999	0.00405200000000001	0.00831999999999999	0.01176	0.0157599999999998
0.75	8.564e-06	0.000523200000000001	0.003978	0.00826000000000003	0.0117	0.01566
0.755	8.658e-06	0.000522400000000001	0.00395199999999998	0.00822000000000003	0.0116	0.0156399999999999
0.76	1.0287e-05	0.000521400000000001	0.00395999999999998	0.00818000000000002	0.01144	0.0156199999999999
0.765	1.018e-05	0.0005238	0.00394799999999999	0.00810000000000004	0.01132	0.0153200000000002
0.77	9.51599999999999e-06	0.0005254	0.003996	0.00806000000000004	0.0112600000000001	0.0149400000000002
0.775	1.0152e-05	0.000517999999999999	0.00405200000000003	0.00812	0.0112600000000001	0.01474
0.78	1.0062e-05	0.0005082	0.00403800000000002	0.00817999999999995	0.01128	0.0145000000000001
0.785	9.30100000000001e-06	0.0005078	0.004066	0.00825999999999996	0.01126	0.0142400000000001
0.79	9.87399999999999e-06	0.0005156	0.00410200000000001	0.00835999999999999	0.01122	0.0142399999999999
0.795	1.0526e-05	0.000524600000000001	0.00406000000000001	0.00829999999999997	0.01122	0.0141799999999999
0.8	1.0529e-05	0.000531200000000001	0.004018	0.00817999999999997	0.0112	0.0139399999999999
0.805	1.06e-05	0.000538000000000001	0.00400000000000001	0.00818000000000002	0.0111200000000001	0.0139200000000001
0.81	1.0467e-05	0.000541000000000001	0.00397000000000003	0.00806000000000004	0.0110400000000001	0.0139400000000001
0.815	9.98500000000004e-06	0.000534000000000001	0.00396800000000001	0.00786000000000005	0.0109	0.01372
0.82	9.41100000000004e-06	0.0005214	0.00398399999999998	0.00786000000000005	0.01074	0.0135600000000002
0.825	8.964e-06	0.0005126	0.00400599999999998	0.00791999999999999	0.01068	0.0135200000000002
0.83	9.69399999999997e-06	0.0005088	0.00403999999999998	0.00787999999999996	0.0106799999999999	0.01334
0.835	1.154e-05	0.000513199999999999	0.00400999999999998	0.00786000000000001	0.0106599999999999	0.0132199999999999
0.84	1.1949e-05	0.000527800000000001	0.003964	0.00796000000000001	0.01068	0.0132399999999999
0.845	1.1151e-05	0.000539000000000001	0.00396	0.00800000000000001	0.0107	0.0131199999999999
0.85	1.0801e-05	0.000551	0.003942	0.00790000000000005	0.01068	0.0129599999999999
0.855	1.0227e-05	0.000563	0.00391800000000001	0.00788	0.0107	0.0129599999999999
0.86	9.698e-06	0.000555199999999999	0.00393200000000001	0.0079599999999999	0.01068	0.01292
0.865	9.922e-06	0.000539599999999999	0.00398200000000001	0.0079599999999999	0.0106199999999999	0.01276
0.87	1.0306e-05	0.000536199999999998	0.004022	0.00791999999999993	0.0106199999999999	0.0126599999999999
0.875	1.0602e-05	0.000538599999999999	0.004034	0.00793999999999995	0.0105399999999999	0.0125799999999999
0.88	1.0548e-05	0.000542600000000001	0.004036	0.00796000000000001	0.0103399999999999	0.01238
0.885	1.0169e-05	0.0005492	0.004022	0.00794000000000002	0.01028	0.0121400000000001
0.89	1.0464e-05	0.0005502	0.00396800000000001	0.00787999999999996	0.0103600000000001	0.0120000000000002
0.895	1.18233333333333e-05	0.000547999999999999	0.00390333333333336	0.00783333333333324	0.0103333333333335	0.0120000000000002
0.9	1.424e-05	0.000527999999999997	0.00388000000000003	0.00779999999999981	0.0106000000000002	0.0116000000000005
