Vds	Gm_Vgs=0.15V	Gm_Vgs=0.3V	Gm_Vgs=0.45V	Gm_Vgs=0.6V	Gm_Vgs=0.75V	Gm_Vgs=0.9V
0	0.0005839	0.0151687	0.019062	0.016928	0.0159688	0.1695988
0.005	0.00055247	0.0150913	0.0559227	0.0881169	0.103012066666667	0.1746462
0.01	0.000506973	0.01421748	0.06856336	0.11517112	0.13719448	0.17869912
0.015	0.000461744	0.01340594	0.07981896	0.13953552	0.16790872	0.18165536
0.02	0.00041291	0.012396535	0.08418132	0.15135934	0.18363416	0.18381214
0.025	0.000368494	0.0112889	0.07850174	0.14441898	0.17655524	0.1843034
0.03	0.000328968	0.010272	0.0725058	0.136868	0.168574	0.183888
0.035	0.000295603	0.0094014	0.06964	0.135042	0.167638	0.183446
0.04	0.000269112	0.008632	0.066794	0.133158	0.166714	0.18295
0.045	0.0002454	0.0079358	0.063998	0.131316	0.165772	0.182394
0.05	0.00022344	0.0073064	0.061238	0.129322	0.164704	0.181908
0.055	0.00020614	0.0067594	0.058532	0.127234	0.163842	0.18172
0.06	0.000192	0.0062846	0.05598	0.125252	0.163222	0.181448
0.065	0.0001789	0.0058706	0.053558	0.12328	0.16232	0.180808
0.07	0.00016996	0.0055168	0.051174	0.121234	0.161284	0.180202
0.075	0.0001639	0.0052036	0.048908	0.119378	0.16039	0.179614
0.08	0.00015744	0.0049144	0.04677	0.11775	0.159212	0.178698
0.085	0.00015124	0.0046598	0.04465	0.115866	0.157742	0.1778
0.09	0.00014638	0.004436	0.042608	0.113692	0.15652	0.17724
0.095	0.0001432	0.0042378	0.040664	0.11149	0.15532	0.17668
0.1	0.0001409	0.0040758	0.038792	0.109122	0.15394	0.17604
0.105	0.00013822	0.0039422	0.03703	0.106522	0.15258	0.17542
0.11	0.0001366	0.0038314	0.035366	0.10402	0.15128	0.17476
0.115	0.00013568	0.0037348	0.033754	0.10158	0.14988	0.17386
0.12	0.00013314	0.0036448	0.032268	0.0992	0.14844	0.17292
0.125	0.0001304	0.0035624	0.030904	0.09698	0.14718	0.17216
0.13	0.00013032	0.0034904	0.029628	0.0947	0.14596	0.17144
0.135	0.00013058	0.003426	0.028452	0.0924400000000001	0.14456	0.17068
0.14	0.00013016	0.0033762	0.027314	0.0903600000000001	0.1432	0.17008
0.145	0.00013344	0.0033466	0.026212	0.08816	0.14188	0.16954
0.15	0.0001382	0.0033204	0.02517	0.08576	0.14032	0.16874
0.155	0.00013906	0.003303	0.024194	0.0834399999999999	0.13868	0.1678
0.16	0.00013896	0.0032956	0.02333	0.0811599999999999	0.13708	0.1669
0.165	0.00014056	0.003273	0.022586	0.0789	0.13542	0.16604
0.17	0.0001399	0.0032412	0.02189	0.07674	0.13364	0.16498
0.175	0.00013836	0.0032342	0.021246	0.07464	0.13196	0.16392
0.18	0.0001391	0.0032436	0.020642	0.07254	0.13046	0.16306
0.185	0.0001407	0.0032286	0.020062	0.07042	0.12888	0.16218
0.19	0.00014204	0.0032144	0.019532	0.0683	0.12718	0.16116
0.195	0.00014408	0.0032294	0.019046	0.06624	0.12562	0.16022
0.2	0.00014716	0.0032322	0.018622	0.0643000000000001	0.12404	0.1594
0.205	0.00014948	0.0032212	0.018248	0.0624800000000001	0.12216	0.15846
0.21	0.00015172	0.0032438	0.017868	0.0607	0.12028	0.1574
0.215	0.00015444	0.003276	0.017496	0.0589	0.11854	0.15636
0.22	0.00015536	0.0032776	0.017176	0.0571	0.11678	0.15536
0.225	0.00015438	0.003274	0.016832	0.05522	0.11492	0.154
0.23	0.00015484	0.00327	0.01649	0.05338	0.11304	0.15254
0.235	0.00015592	0.003268	0.016216	0.05178	0.11114	0.15146
0.24	0.00015578	0.003282	0.015968	0.05032	0.10918	0.15042
0.245	0.0001572	0.003298	0.015772	0.04886	0.1072	0.14918
0.25	0.00016108	0.00330599999999999	0.015606	0.04746	0.10526	0.14812
0.255	0.00016466	0.003314	0.015364	0.04606	0.10338	0.14714
0.26	0.0001664	0.003312	0.015144	0.04456	0.1015	0.14584
0.265	0.0001687	0.003298	0.015016	0.0432	0.0995799999999999	0.14444
0.27	0.00017178	0.00331	0.014834	0.04204	0.09766	0.14316
0.275	0.00017378	0.00334400000000001	0.01467	0.0408600000000001	0.0958000000000001	0.1419
0.28	0.00017602	0.00337000000000001	0.014618	0.0396400000000001	0.0938400000000001	0.14042
0.285	0.00017814	0.00339200000000001	0.014532	0.0385800000000001	0.0918600000000001	0.1389
0.29	0.000179	0.00341000000000001	0.014434	0.0375400000000001	0.0900200000000002	0.13752
0.295	0.00018076	0.003418	0.014398	0.03642	0.08812	0.13612
0.3	0.0001829	0.00342199999999999	0.014288	0.0354999999999999	0.0860999999999999	0.13468
0.305	0.00018224	0.00342599999999999	0.014124	0.0347999999999999	0.0842399999999999	0.13338
0.31	0.00018366	0.00343799999999999	0.013996	0.0340799999999999	0.0824399999999999	0.13204
0.315	0.00019072	0.003464	0.013884	0.03326	0.0804999999999999	0.1305
0.32	0.00019442	0.003478	0.013772	0.0325	0.07864	0.12892
0.325	0.0001936	0.003482	0.013686	0.03178	0.0768799999999999	0.12728
0.33	0.00019628	0.003508	0.013684	0.03102	0.0751	0.12564
0.335	0.00019964	0.00353600000000001	0.013704	0.0303400000000001	0.0733000000000001	0.12416
0.34	0.00019884	0.00354600000000001	0.013604	0.0298	0.0715200000000001	0.12272
0.345	0.00019838	0.00355800000000001	0.013468	0.02926	0.0697800000000001	0.12116
0.35	0.00020216	0.00357600000000001	0.0134840000000001	0.0287	0.0681000000000002	0.1196
0.355	0.00020898	0.003596	0.013478	0.0282399999999999	0.0664400000000001	0.11798
0.36	0.00021346	0.00361599999999999	0.013352	0.0277799999999999	0.06476	0.11618
0.365	0.00021386	0.00362799999999999	0.013294	0.0272599999999999	0.0631399999999999	0.11442
0.37	0.00021646	0.00363999999999999	0.013296	0.0268399999999999	0.0616999999999998	0.11284
0.375	0.00022056	0.00366199999999999	0.013262	0.02652	0.0603199999999998	0.11124
0.38	0.00021916	0.00367	0.01321	0.02614	0.0587999999999999	0.10958
0.385	0.00021668	0.003666	0.01336	0.02574	0.05738	0.10792
0.39	0.0002205	0.003694	0.013682	0.0254	0.05608	0.10626
0.395	0.00022626	0.003726	0.01386	0.02504	0.0545800000000001	0.10456
0.4	0.000230140000000001	0.00374200000000001	0.013874	0.0247	0.0530600000000001	0.10282
0.405	0.000235380000000001	0.003754	0.01383	0.0244	0.0517600000000001	0.10118
0.41	0.00024102	0.00376	0.013662	0.02408	0.0505000000000001	0.0995800000000001
0.415	0.00024158	0.003764	0.013342	0.02388	0.0492400000000001	0.0978400000000002
0.42	0.00023892	0.003764	0.01302	0.02374	0.0481	0.09608
0.425	0.00023932	0.003774	0.01286	0.02344	0.0470199999999999	0.0943599999999998
0.43	0.00024318	0.003798	0.01292	0.02318	0.04602	0.0924399999999999
0.435	0.00024952	0.003816	0.01288	0.02308	0.04512	0.09054
0.44	0.00025656	0.003818	0.01272	0.02284	0.0441599999999999	0.0889599999999999
0.445	0.00026138	0.003848	0.0128	0.02254	0.0431399999999999	0.0874200000000001
0.45	0.0002633	0.00389399999999999	0.0129	0.02242	0.0422199999999999	0.0857800000000002
0.455	0.00026246	0.003914	0.0128	0.02228	0.0412999999999999	0.0842200000000002
0.46	0.00026088	0.00393000000000001	0.01274	0.02204	0.0403399999999999	0.0826600000000001
0.465	0.00026334	0.003956	0.01276	0.02184	0.03952	0.0809200000000001
0.47	0.000268640000000001	0.003976	0.01272	0.02164	0.0388200000000001	0.07914
0.475	0.0002714	0.00398000000000001	0.01264	0.0214400000000001	0.0381000000000001	0.0774399999999998
0.48	0.00027474	0.003986	0.01254	0.02136	0.0373600000000001	0.0758599999999998
0.485	0.00027924	0.00401	0.01248	0.02124	0.0366	0.0743799999999998
0.49	0.00028164	0.004042	0.0125	0.02104	0.0359199999999999	0.0728599999999998
0.495	0.00028548	0.004044	0.01256	0.021	0.03532	0.07126
0.5	0.00029152	0.00403	0.01264	0.021	0.0346599999999999	0.0697400000000001
0.505	0.00029302	0.00405	0.01268	0.02082	0.0341399999999999	0.0683200000000001
0.51	0.00029342	0.00408199999999999	0.01268	0.02068	0.03372	0.06684
0.515	0.0002967	0.00408399999999999	0.01276	0.02068	0.03312	0.0653999999999998
0.52	0.00029844	0.00409399999999999	0.01276	0.0205599999999999	0.0326	0.0640999999999998
0.525	0.00030422	0.00413199999999999	0.0126	0.0203199999999999	0.0323000000000001	0.06278
0.53	0.0003143	0.00415599999999999	0.0126	0.0201799999999999	0.0318800000000001	0.0613800000000001
0.535	0.00032112	0.004172	0.01264	0.0201399999999999	0.0314400000000001	0.0600400000000002
0.54	0.00032506	0.004208	0.0125	0.0200199999999999	0.03116	0.0587600000000003
0.545	0.00032678	0.004228	0.01244	0.01992	0.0308199999999999	0.0574800000000003
0.55	0.00032538	0.00423400000000001	0.0125	0.0200800000000001	0.03034	0.0561800000000002
0.555	0.000325800000000001	0.00426000000000002	0.01242	0.0202000000000002	0.02988	0.0549200000000002
0.56	0.000327400000000001	0.00426600000000002	0.0123800000000001	0.0200000000000002	0.02942	0.05382
0.565	0.000328200000000001	0.00425600000000002	0.0124600000000001	0.0198800000000002	0.0290200000000001	0.0527599999999999
0.57	0.000335200000000001	0.00428800000000002	0.01246	0.0198200000000002	0.0287400000000001	0.0516199999999999
0.575	0.000341	0.00432800000000001	0.01242	0.01954	0.0284000000000001	0.0505799999999997
0.58	0.0003382	0.00432999999999999	0.01244	0.0193199999999999	0.0281	0.0495999999999996
0.585	0.0003386	0.00434599999999999	0.0125	0.0192999999999999	0.0279200000000001	0.0484599999999997
0.59	0.000347399999999999	0.00438799999999999	0.0125	0.0193199999999999	0.02772	0.0473999999999999
0.595	0.0003538	0.0044	0.0125	0.0194	0.02746	0.0466000000000001
0.6	0.0003558	0.00439	0.01256	0.01946	0.0272	0.0458200000000001
0.605	0.000365399999999999	0.004406	0.01258	0.01942	0.02692	0.0450000000000001
0.61	0.000377999999999999	0.00443799999999999	0.01254	0.01936	0.0266599999999999	0.0441600000000001
0.615	0.000381	0.00446599999999999	0.01254	0.01914	0.0264599999999999	0.0432599999999999
0.62	0.000378399999999999	0.00449599999999999	0.01256	0.0188599999999999	0.0262599999999999	0.0423599999999997
0.625	0.000379	0.00451999999999998	0.01254	0.0187999999999999	0.0260999999999999	0.0415199999999999
0.63	0.0003812	0.00453599999999999	0.0125	0.01882	0.0259999999999998	0.0407800000000001
0.635	0.0003832	0.004548	0.01254	0.0187600000000001	0.0258799999999999	0.0402000000000002
0.64	0.000388	0.004546	0.0126	0.0188000000000001	0.02564	0.0396600000000002
0.645	0.0003964	0.004552	0.01254	0.0188600000000001	0.0253400000000001	0.0390200000000001
0.65	0.0004044	0.00459800000000001	0.0125	0.01872	0.0250800000000001	0.03836
0.655	0.0004088	0.004646	0.01258	0.0185599999999999	0.0248200000000001	0.0376799999999999
0.66	0.0004108	0.004664	0.01252	0.0185599999999999	0.0246000000000001	0.0370799999999999
0.665	0.0004104	0.004674	0.01234	0.0185999999999998	0.02454	0.03668
0.67	0.000412199999999999	0.004698	0.01238	0.0185999999999999	0.0244999999999999	0.0361800000000001
0.675	0.0004182	0.00473	0.01248	0.01868	0.0243999999999999	0.0355400000000001
0.68	0.000420400000000001	0.00472800000000001	0.0124000000000001	0.0188000000000001	0.02438	0.0350400000000002
0.685	0.000421800000000001	0.00471800000000002	0.0124	0.0187400000000001	0.0243400000000001	0.0346000000000002
0.69	0.000431200000000002	0.00475000000000002	0.0125800000000001	0.0185200000000001	0.0241600000000001	0.0340799999999999
0.695	0.000440000000000002	0.00477200000000002	0.0126000000000001	0.0183800000000001	0.0239600000000002	0.0336599999999999
0.7	0.000443200000000001	0.00477000000000001	0.0125	0.01832	0.0238600000000002	0.03336
0.705	0.0004496	0.00481	0.01256	0.01818	0.02384	0.0328999999999997
0.71	0.000459	0.00486399999999999	0.0126	0.01812	0.0237399999999999	0.0323599999999997
0.715	0.0004624	0.00486599999999999	0.01246	0.01824	0.0234999999999999	0.0319200000000001
0.72	0.0004626	0.00485199999999999	0.01238	0.01834	0.0233799999999999	0.0315400000000003
0.725	0.000467	0.00483799999999999	0.01242	0.01836	0.0233399999999999	0.0312400000000001
0.73	0.0004728	0.004822	0.01238	0.0184000000000001	0.0231	0.0310800000000001
0.735	0.000477199999999999	0.00483	0.01236	0.0184600000000001	0.0229	0.0308400000000001
0.74	0.000482399999999999	0.00487	0.0125	0.0184000000000001	0.02298	0.0304399999999999
0.745	0.000486999999999999	0.004932	0.01264	0.0181999999999999	0.02302	0.0301399999999997
0.75	0.000492399999999999	0.00497	0.01266	0.0180399999999999	0.02282	0.0297999999999999
0.755	0.0005016	0.004996	0.01264	0.0180399999999999	0.0226199999999999	0.0293600000000001
0.76	0.000503799999999999	0.005064	0.01266	0.0180399999999998	0.0226	0.0290599999999999
0.765	0.0005032	0.00513	0.01258	0.0179999999999999	0.0226	0.0287999999999999
0.77	0.0005162	0.00514	0.0124	0.01812	0.0224799999999999	0.0285400000000001
0.775	0.000526999999999999	0.00516	0.01236	0.0182	0.0224399999999999	0.0284000000000001
0.78	0.000526199999999999	0.00518399999999999	0.01244	0.01806	0.02242	0.0282
0.785	0.0005348	0.00513799999999999	0.0125	0.0180000000000001	0.02222	0.0279
0.79	0.0005444	0.00509599999999999	0.0126	0.01802	0.02206	0.0276999999999999
0.795	0.000539799999999999	0.005112	0.01266	0.0179199999999999	0.02204	0.0274999999999999
0.8	0.000545000000000001	0.00514000000000001	0.01256	0.01778	0.022	0.0271999999999999
0.805	0.000560800000000002	0.00519000000000002	0.01256	0.01766	0.0219600000000001	0.02698
0.81	0.000564400000000002	0.00524600000000002	0.0126600000000001	0.0175999999999999	0.0219200000000001	0.0268600000000002
0.815	0.000568200000000002	0.00527000000000002	0.0126800000000001	0.01774	0.0218600000000002	0.0267400000000002
0.82	0.000581000000000003	0.00530400000000002	0.0127200000000001	0.0179400000000001	0.0218400000000002	0.0266200000000001
0.825	0.000587000000000001	0.00531800000000001	0.01274	0.0179800000000002	0.0217400000000001	0.0265200000000001
0.83	0.0005862	0.00527	0.0126199999999999	0.0179600000000002	0.02164	0.02642
0.835	0.000588399999999999	0.005282	0.01246	0.0179000000000001	0.0216799999999999	0.0263199999999999
0.84	0.000592799999999999	0.00534199999999999	0.01242	0.0177000000000001	0.0215599999999999	0.02614
0.845	0.000598599999999999	0.00531999999999999	0.01248	0.01752	0.0212599999999999	0.0258200000000001
0.85	0.0006052	0.00531799999999999	0.0126	0.0175999999999999	0.0212199999999999	0.02558
0.855	0.000612	0.005392	0.01276	0.0177599999999998	0.02142	0.02542
0.86	0.000625399999999999	0.00542	0.01286	0.01782	0.02152	0.02524
0.865	0.000637599999999999	0.00542399999999999	0.01278	0.01788	0.02148	0.0251199999999998
0.87	0.000638199999999999	0.00547399999999999	0.01266	0.01784	0.0215000000000001	0.0250799999999999
0.875	0.000642599999999998	0.005508	0.01268	0.0177600000000001	0.0215000000000001	0.0250600000000001
0.88	0.000655599999999999	0.00552399999999999	0.01268	0.0178200000000001	0.0213	0.02504
0.885	0.0006612	0.00554599999999998	0.01262	0.01774	0.0211800000000001	0.0249600000000001
0.89	0.0006634	0.00555199999999998	0.01268	0.01746	0.0213200000000001	0.0248400000000001
0.895	0.000674666666666667	0.00559666666666663	0.0127666666666667	0.0173333333333333	0.0214000000000001	0.0247666666666664
0.9	0.000656000000000001	0.00559999999999996	0.0128	0.0163999999999997	0.0218000000000003	0.0245999999999996
