|Vgs|	Gm_|Vds|=0.15V	Gm_|Vds|=0.3V	Gm_|Vds|=0.45V	Gm_|Vds|=0.6V	Gm_|Vds|=0.75V	Gm_|Vds|=0.9V
-0.3	2.2000000000001e-10	4.95999999999997e-09	-8.87999999999993e-09	-3.12000000000016e-08	-1.30400000000013e-08	8.53200000000017e-08
-0.295	5.31833333333336e-10	4.19333333333328e-09	-4.22333333333321e-09	-1.91700000000006e-08	-7.90666666666731e-09	6.33566666666666e-08
-0.29	1.3808e-09	3.331e-09	5.3200000000006e-10	-8.01000000000041e-09	1.59599999999965e-09	5.31839999999999e-08
-0.285	1.9522e-09	3.049e-09	3.67800000000001e-09	1.97800000000002e-09	8.09799999999996e-09	4.58539999999997e-08
-0.28	2.5192e-09	3.23300000000003e-09	6.14199999999995e-09	9.13800000000006e-09	1.57820000000001e-08	4.24819999999999e-08
-0.275	2.8864e-09	3.83900000000001e-09	7.42599999999993e-09	1.2928e-08	2.2626e-08	4.8358e-08
-0.27	2.9202e-09	4.93199999999997e-09	8.16999999999993e-09	1.677e-08	2.7584e-08	6.05400000000002e-08
-0.265	2.8691e-09	6.09999999999996e-09	9.36599999999998e-09	1.987e-08	3.37319999999999e-08	7.39080000000001e-08
-0.26	3.2295e-09	6.76399999999997e-09	1.1252e-08	2.19659999999999e-08	4.09899999999999e-08	8.73879999999999e-08
-0.255	4.0229e-09	7.40199999999997e-09	1.386e-08	2.6016e-08	4.808e-08	1.0034e-07
-0.25	4.8441e-09	8.77299999999999e-09	1.6398e-08	3.1244e-08	5.6558e-08	1.12726e-07
-0.245	5.5669e-09	1.0391e-08	1.8706e-08	3.523e-08	6.5788e-08	1.25798e-07
-0.24	6.36699999999999e-09	1.1595e-08	2.176e-08	3.8992e-08	7.389e-08	1.39848e-07
-0.235	7.09450000000003e-09	1.28570000000001e-08	2.45760000000001e-08	4.46580000000003e-08	8.29460000000004e-08	1.57360000000001e-07
-0.23	7.66510000000003e-09	1.44570000000001e-08	2.67880000000001e-08	5.15740000000002e-08	9.43440000000004e-08	1.79452000000001e-07
-0.225	8.51460000000003e-09	1.6139e-08	3.01960000000001e-08	5.85280000000002e-08	1.07098e-07	2.03644000000001e-07
-0.22	9.75000000000003e-09	1.8073e-08	3.49480000000001e-08	6.66840000000001e-08	1.21786e-07	2.29750000000001e-07
-0.215	1.10393e-08	2.1038e-08	3.98040000000001e-08	7.64740000000001e-08	1.39232e-07	2.59310000000001e-07
-0.21	1.2322e-08	2.4673e-08	4.537e-08	8.55039999999998e-08	1.58512e-07	2.92004e-07
-0.205	1.3719e-08	2.8024e-08	5.2126e-08	9.46919999999998e-08	1.78578e-07	3.28904e-07
-0.2	1.5502e-08	3.1349e-08	5.92159999999999e-08	1.0737e-07	2.01362e-07	3.72904e-07
-0.195	1.7835e-08	3.4948e-08	6.61879999999999e-08	1.21704e-07	2.26726e-07	4.22124e-07
-0.19	2.0454e-08	3.9091e-08	7.3488e-08	1.36936e-07	2.5452e-07	4.75863999999999e-07
-0.185	2.3371e-08	4.448e-08	8.2512e-08	1.56062e-07	2.8704e-07	5.34905999999999e-07
-0.18	2.6813e-08	5.09709999999999e-08	9.38519999999999e-08	1.77206e-07	3.23954e-07	5.97689999999999e-07
-0.175	3.0595e-08	5.82249999999999e-08	1.0682e-07	1.98656e-07	3.64064e-07	6.6733e-07
-0.17	3.4674e-08	6.59939999999999e-08	1.21632e-07	2.2361e-07	4.1016e-07	7.46795999999999e-07
-0.165	3.9092e-08	7.39929999999999e-08	1.38668e-07	2.52752e-07	4.63087999999999e-07	8.35061999999999e-07
-0.16	4.3911e-08	8.30649999999999e-08	1.57234e-07	2.85628e-07	5.20117999999999e-07	9.35399999999999e-07
-0.155	4.9777e-08	9.39529999999999e-08	1.77398e-07	3.23512e-07	5.84802e-07	1.0534e-06
-0.15	5.66699999999999e-08	1.06283e-07	2.00042e-07	3.65918e-07	6.61165999999999e-07	1.1878e-06
-0.145	6.42709999999999e-08	1.20456e-07	2.25786e-07	4.13484e-07	7.46381999999999e-07	1.3386e-06
-0.14	7.301e-08	1.37302e-07	2.55294e-07	4.67474e-07	8.40647999999999e-07	1.5094e-06
-0.135	8.29199999999999e-08	1.56178e-07	2.88828e-07	5.27132e-07	9.48201999999999e-07	1.6982e-06
-0.13	9.38359999999999e-08	1.77054e-07	3.2664e-07	5.94126e-07	1.068422e-06	1.9088e-06
-0.125	1.06241e-07	2.00992e-07	3.69858e-07	6.70508e-07	1.202552e-06	2.1468e-06
-0.12	1.20358e-07	2.28266e-07	4.18804e-07	7.57083999999999e-07	1.356748e-06	2.4106e-06
-0.115	1.36429e-07	2.5856e-07	4.73926e-07	8.55751999999999e-07	1.530814e-06	2.7046e-06
-0.11	1.55138e-07	2.92648000000001e-07	5.36642000000001e-07	9.66964000000002e-07	1.725422e-06	3.04280000000001e-06
-0.105	1.76446e-07	3.31756000000001e-07	6.07198000000001e-07	1.092178e-06	1.94626e-06	3.42580000000001e-06
-0.1	2.00332e-07	3.76498e-07	6.86940000000001e-07	1.235498e-06	2.194438e-06	3.8478e-06
-0.095	2.2729e-07	4.27708e-07	7.78654000000001e-07	1.397386e-06	2.469e-06	4.324e-06
-0.09	2.58006e-07	4.86014e-07	8.82504000000001e-07	1.578814e-06	2.7804e-06	4.8656e-06
-0.085	2.92869e-07	5.51648e-07	9.99217999999999e-07	1.784092e-06	3.1384e-06	5.47419999999999e-06
-0.08	3.32062e-07	6.2559e-07	1.131858e-06	2.016092e-06	3.541e-06	6.15659999999999e-06
-0.075	3.76499e-07	7.09515999999999e-07	1.281136e-06	2.276396e-06	3.9942e-06	6.92359999999999e-06
-0.07	4.27694e-07	8.04549999999999e-07	1.449214e-06	2.57216e-06	4.5104e-06	7.79819999999999e-06
-0.0649999999999999	4.86074e-07	9.11991999999999e-07	1.641266e-06	2.90849e-06	5.093e-06	8.79079999999999e-06
-0.0599999999999999	5.51636e-07	1.03401e-06	1.859948e-06	3.2882e-06	5.74759999999999e-06	9.89439999999999e-06
-0.0549999999999999	6.25594e-07	1.172334e-06	2.106298e-06	3.72e-06	6.48399999999999e-06	1.11258e-05
-0.0499999999999999	7.10118000000002e-07	1.329862e-06	2.386294e-06	4.21180000000001e-06	7.31180000000001e-06	1.25312e-05
-0.0449999999999999	8.06258000000004e-07	1.50944000000001e-06	2.70488800000001e-06	4.76460000000002e-06	8.24880000000004e-06	1.41182000000001e-05
-0.0399999999999999	9.14272000000003e-07	1.71265000000001e-06	3.06498400000001e-06	5.38540000000002e-06	9.31140000000003e-06	1.58844000000001e-05
-0.035	1.037886e-06	1.94229000000001e-06	3.47151000000001e-06	6.09120000000002e-06	1.05064e-05	1.78396000000001e-05
-0.03	1.18086e-06	2.20396200000001e-06	3.93640000000001e-06	6.89420000000002e-06	1.1849e-05	2.00438000000001e-05
-0.025	1.342032e-06	2.50048e-06	4.468e-06	7.80160000000001e-06	1.33692e-05	2.25744e-05
-0.02	1.523558e-06	2.834012e-06	5.0616e-06	8.82599999999999e-06	1.50954e-05	2.54308e-05
-0.015	1.731574e-06	3.212606e-06	5.7282e-06	9.98479999999999e-06	1.70458e-05	2.86396e-05
-0.01	1.967414e-06	3.645218e-06	6.4912e-06	1.12924e-05	1.92178e-05	3.22914e-05
-0.005	2.231818e-06	4.13624e-06	7.35539999999999e-06	1.27732e-05	2.16306e-05	3.64008e-05
-0	2.534014e-06	4.6938e-06	8.32919999999999e-06	1.44538e-05	2.43926e-05	4.1006e-05
0.005	2.881592e-06	5.32579999999999e-06	9.44059999999999e-06	1.63606e-05	2.75772e-05	4.6171e-05
0.01	3.277e-06	6.04579999999999e-06	1.07124e-05	1.85342e-05	3.11518e-05	5.192e-05
0.015	3.72758e-06	6.86539999999999e-06	1.214e-05	2.09374e-05	3.5173e-05	5.84e-05
0.02	4.236536e-06	7.78779999999999e-06	1.3744e-05	2.3592e-05	3.97708e-05	6.5754e-05
0.025	4.8062e-06	8.83379999999999e-06	1.5566e-05	2.6633e-05	4.4904e-05	7.4038e-05
0.03	5.455e-06	1.00298e-05	1.76406e-05	3.0115e-05	5.0606e-05	8.33529999999999e-05
0.035	6.1924e-06	1.138e-05	1.9967e-05	3.40498e-05	5.7064e-05	9.37669999999999e-05
0.04	7.02499999999999e-06	1.29052e-05	2.25618e-05	3.85418e-05	6.43469999999999e-05	0.000105452
0.045	7.97579999999999e-06	1.46438e-05	2.55162e-05	4.36654e-05	7.25259999999999e-05	0.000118634
0.05	9.05699999999999e-06	1.6619e-05	2.88952e-05	4.9409e-05	8.17919999999999e-05	0.000133393
0.055	1.02784e-05	1.8851e-05	3.27294e-05	5.5854e-05	9.22589999999999e-05	0.000149783
0.0600000000000001	1.1669e-05	2.13516e-05	3.7101e-05	6.31579999999999e-05	0.000104029	0.000168291
0.0650000000000001	1.32418e-05	2.41688e-05	4.21222e-05	7.13859999999999e-05	0.000117301	0.00018925
0.0700000000000001	1.4989e-05	2.73686e-05	4.774e-05	8.05179999999999e-05	0.000132092	0.000212339
0.0750000000000001	1.69632e-05	3.10260000000001e-05	5.39970000000001e-05	9.08290000000002e-05	0.000148674	0.000238187
0.0800000000000001	1.91898000000001e-05	3.51808000000002e-05	6.11160000000003e-05	0.000102597	0.000167413000000001	0.000267622000000001
0.0850000000000001	2.16912000000001e-05	3.99044000000002e-05	6.92220000000003e-05	0.000115916	0.000188630000000001	0.000300609000000001
0.09	2.45814000000001e-05	4.53128000000002e-05	7.83030000000003e-05	0.000130877	0.000212492000000001	0.000337346000000001
0.095	2.79620000000001e-05	5.14370000000001e-05	8.85430000000003e-05	0.000147805	0.000239264000000001	0.000378477000000001
0.1	3.18236e-05	5.82730000000001e-05	0.000100215	0.000166847	0.00026941	0.00042422
0.105	3.62018e-05	6.59969999999999e-05	0.000113351	0.000188105	0.000303261	0.00047554
0.11	4.11774e-05	7.47889999999999e-05	0.000128025	0.000212009	0.00034071	0.00053304
0.115	4.679e-05	8.46869999999999e-05	0.000144597	0.000239008	0.000382421	0.0005965
0.12	5.3099e-05	9.58619999999999e-05	0.00016342	0.000269308	0.0004296	0.000667259999999999
0.125	6.0204e-05	0.000108572	0.000184726	0.000303259	0.00048256	0.000746559999999999
0.13	6.82749999999999e-05	0.000122913	0.000208604	0.000341794	0.0005415	0.000834379999999999
0.135	7.74399999999999e-05	0.000139078	0.000235389	0.000385145	0.000607399999999999	0.000931759999999999
0.14	8.77389999999999e-05	0.00015731	0.000265806	0.00043312	0.000681259999999999	0.0010401
0.145	9.93079999999999e-05	0.000177847	0.000300186	0.00048664	0.000763719999999999	0.00116064
0.15	0.000112368	0.000201249	0.000338622	0.000547279999999999	0.000855279999999999	0.00129464
0.155	0.00012717	0.000227771	0.000381851	0.000615079999999999	0.000957399999999999	0.001444
0.16	0.000143912	0.00025728	0.000430754	0.000690359999999999	0.00107158	0.00160988
0.165	0.000162765	0.000290536	0.00048512	0.000775259999999999	0.00119744	0.00179092
0.17	0.000184073	0.00032813	0.00054536	0.000870439999999999	0.00133638	0.00198734
0.175	0.00020804	0.000369692	0.00061282	0.000975019999999999	0.00149048	0.00220198
0.18	0.000234964	0.000416193	0.000688559999999999	0.00109086	0.00166138	0.00243958
0.185	0.000265245	0.00046926	0.000773239999999999	0.00122016	0.00184786	0.00270058
0.19	0.000299315	0.00052924	0.000868179999999999	0.00136384	0.00205172	0.0029886
0.195	0.000337636	0.000595859999999999	0.000974719999999999	0.00152354	0.00227898	0.00331124
0.2	0.000381014000000001	0.000670760000000001	0.00109362	0.0017015	0.00253152	0.00366700000000001
0.205	0.000429828000000002	0.000755240000000003	0.00122582000000001	0.00189574000000001	0.00280862000000001	0.00404940000000002
0.21	0.000484520000000002	0.000848720000000003	0.00137312000000001	0.00210824000000001	0.00311610000000001	0.00446460000000002
0.215	0.000546000000000002	0.000952360000000003	0.00153668000000001	0.00234752000000001	0.00345656000000001	0.00491920000000002
0.22	0.000614680000000002	0.0010693	0.00171750000000001	0.00261236000000001	0.00382660000000001	0.00540760000000002
0.225	0.000691020000000001	0.00119982	0.00191532	0.00289864	0.004229	0.00593160000000001
0.23	0.000776539999999999	0.0013437	0.00213194	0.00321554	0.0046648	0.00650059999999999
0.235	0.000872739999999999	0.00150338	0.0023722	0.00356876	0.0051408	0.00711279999999999
0.24	0.000979979999999999	0.00168096	0.00263958	0.003949	0.0056566	0.00777099999999999
0.245	0.00109918	0.0018765	0.0029367	0.00436	0.006202	0.00848059999999999
0.25	0.00123204	0.00209136	0.00326454	0.004815	0.00679439999999999	0.00923939999999999
0.255	0.0013798	0.00233024	0.00362172	0.0053106	0.00744039999999999	0.0100512
0.26	0.00154334	0.00259584	0.0040126	0.00584299999999999	0.00812239999999999	0.0109156
0.265	0.00172354	0.00288616	0.0044386	0.00641879999999999	0.00885779999999999	0.011824
0.27	0.00192154	0.00320552	0.004897	0.00704159999999999	0.00966199999999999	0.0127838
0.275	0.00213992	0.00356026	0.00539579999999999	0.00770439999999999	0.0105072	0.0138012
0.28	0.00238254	0.0039472	0.00593879999999999	0.00841159999999999	0.0114018	0.0148646
0.285	0.00265008	0.004367	0.00652179999999999	0.00917359999999999	0.012361	0.015987
0.29	0.00294428	0.004828	0.00715559999999999	0.00999179999999999	0.0133612	0.0171752
0.295	0.00326794	0.0053274	0.00784399999999999	0.010854	0.0144028	0.0184032
0.3	0.00362232	0.00586399999999999	0.00857199999999999	0.0117652	0.0155046	0.0196864
0.305	0.004008	0.00644239999999999	0.00934359999999999	0.0127426	0.0166672	0.021039
0.31	0.0044282	0.00706719999999999	0.0101734	0.0137778	0.0178854	0.0224242
0.315	0.0048872	0.00773839999999999	0.0110528	0.0148636	0.019157	0.023846
0.32	0.00538279999999999	0.00845359999999999	0.0119766	0.0160046	0.0204802	0.025326
0.325	0.00591140000000001	0.00921840000000002	0.0129602	0.0172062	0.021844	0.026832
0.33	0.00647800000000003	0.0100326	0.0140116000000001	0.0184446000000001	0.0232462000000001	0.0283520000000001
0.335	0.00709000000000003	0.010892	0.0151148000000001	0.0197122000000001	0.0246860000000001	0.0299180000000001
0.34	0.00774540000000003	0.011803	0.0162510000000001	0.0210344000000001	0.0261500000000001	0.0315200000000001
0.345	0.00844100000000002	0.01277	0.0174338000000001	0.0224028000000001	0.0276600000000001	0.0331420000000001
0.35	0.00918560000000001	0.0137938	0.018683	0.023811	0.029222	0.03479
0.355	0.00998179999999999	0.0148778	0.0199776	0.025284	0.03081	0.036454
0.36	0.0108152	0.0160086	0.0212986	0.026802	0.032428	0.038136
0.365	0.0116812	0.0171756	0.0226542	0.02833	0.034068	0.039832
0.37	0.0126004	0.0183836	0.0240506	0.029894	0.03571	0.041536
0.375	0.013565	0.019623	0.025486	0.031476	0.037366	0.043248
0.38	0.014557	0.0209022	0.026954	0.033056	0.039038	0.044946
0.385	0.0155904	0.022241	0.02846	0.034676	0.040704	0.046612
0.39	0.0166668	0.0236164	0.030024	0.036318	0.042362	0.048298
0.395	0.0177724	0.025014	0.031614	0.037954	0.04403	0.04999
0.4	0.018913	0.02645	0.03318	0.039598	0.045722	0.051616
0.405	0.0200808	0.027908	0.03474	0.041224	0.047394	0.053254
0.41	0.0212552	0.029364	0.036322	0.04283	0.049026	0.054938
0.415	0.0224642	0.030834	0.037916	0.044466	0.050694	0.0565619999999999
0.42	0.023706	0.032342	0.0395	0.046086	0.052362	0.058164
0.425	0.024946	0.033866	0.0410840000000001	0.0476680000000001	0.0539440000000001	0.0598000000000001
0.43	0.026198	0.0353700000000001	0.0426920000000001	0.0492840000000001	0.0555000000000001	0.0613520000000001
0.435	0.027448	0.0368800000000001	0.0443160000000001	0.0508960000000001	0.0570640000000001	0.0628160000000001
0.44	0.028664	0.038406	0.0459060000000001	0.0524740000000001	0.0585680000000001	0.0642500000000001
0.445	0.029872	0.03991	0.047472	0.054074	0.060032	0.065618
0.45	0.031086	0.041412	0.0490439999999999	0.055666	0.0615099999999999	0.0669639999999999
0.455	0.032292	0.042924	0.0505759999999999	0.0571839999999999	0.062956	0.0683359999999999
0.46	0.033516	0.044412	0.0520479999999999	0.0586579999999999	0.06435	0.069684
0.465	0.034734	0.045888	0.0535099999999999	0.060112	0.065744	0.070974
0.47	0.035902	0.047342	0.054982	0.061518	0.06714	0.072234
0.475	0.037042	0.048748	0.056402	0.062882	0.06848	0.0734919999999999
0.48	0.038128	0.050156	0.057786	0.064234	0.069756	0.074706
0.485	0.0391520000000001	0.0515340000000001	0.0591720000000001	0.0655680000000001	0.0710120000000001	0.0756700000000001
0.49	0.0401440000000001	0.0528200000000001	0.0605160000000001	0.0668300000000001	0.0722540000000001	0.0764120000000001
0.495	0.0410800000000001	0.0540820000000001	0.0618040000000001	0.0680300000000001	0.0734400000000001	0.0772680000000001
0.5	0.0419660000000001	0.0553560000000001	0.0630800000000001	0.0692260000000001	0.0745340000000001	0.0783040000000001
0.505	0.042838	0.056594	0.064348	0.07041	0.075358	0.079354
0.51	0.04368	0.057796	0.0655539999999999	0.0715499999999999	0.07598	0.0804839999999999
0.515	0.044454	0.058982	0.0667119999999999	0.0726559999999999	0.0767839999999999	0.0817539999999999
0.52	0.045148	0.06011	0.06787	0.07372	0.07775	0.0828599999999999
0.525	0.0457859999999999	0.0611719999999999	0.06899	0.074554	0.078762	0.08372
0.53	0.0463759999999999	0.0622039999999999	0.0700199999999999	0.07519	0.0800019999999999	0.0845199999999999
0.535	0.046892	0.0632019999999999	0.071006	0.0759339999999999	0.0813159999999999	0.0852999999999999
0.54	0.047344	0.0641619999999999	0.0719959999999999	0.0767899999999999	0.0823199999999999	0.08604
0.545	0.047778	0.0651239999999999	0.0727619999999999	0.0776939999999999	0.0831199999999999	0.0867599999999999
0.55	0.0481480000000001	0.0660420000000001	0.0733080000000001	0.0787760000000001	0.0838600000000001	0.0874400000000001
0.555	0.0484340000000001	0.0668700000000001	0.0740080000000001	0.0799520000000001	0.0845400000000001	0.0880800000000001
0.56	0.0486620000000001	0.0676940000000001	0.0748580000000001	0.0809600000000001	0.0852600000000001	0.0887600000000001
0.565	0.0488200000000001	0.0685280000000001	0.0757180000000001	0.0818000000000001	0.0859600000000001	0.08944
0.57	0.048912	0.0692820000000001	0.0767040000000001	0.0825200000000001	0.0865600000000001	0.0900000000000001
0.575	0.0489319999999999	0.0697739999999999	0.0777679999999999	0.0831599999999999	0.0871599999999999	0.0905199999999999
0.58	0.0489219999999999	0.0700539999999999	0.0785999999999999	0.0838599999999999	0.0877799999999999	0.0910799999999999
0.585	0.048862	0.070488	0.0792399999999999	0.0845399999999999	0.0883599999999999	0.0915199999999999
0.59	0.048708	0.07104	0.0799	0.0850999999999999	0.0888999999999999	0.0919199999999999
0.595	0.048532	0.07152	0.08058	0.0856799999999999	0.0894	0.0924999999999999
0.6	0.048354	0.0721739999999999	0.0811799999999999	0.0862799999999999	0.08988	0.0930199999999999
0.605	0.0480540000000001	0.0730200000000001	0.0817600000000001	0.0868000000000001	0.0903600000000002	0.0933400000000001
0.61	0.0476680000000001	0.0736200000000001	0.0824200000000001	0.0873000000000001	0.0908400000000002	0.0937400000000001
0.615	0.0473240000000001	0.0739200000000001	0.0829200000000001	0.0878200000000001	0.0913000000000001	0.0941200000000001
0.62	0.0469400000000001	0.0741800000000001	0.0832600000000001	0.0883200000000001	0.0917400000000001	0.0943600000000001
0.625	0.0464700000000001	0.0745000000000001	0.0837400000000001	0.0887800000000001	0.0921400000000001	0.0946400000000001
0.63	0.0459939999999999	0.0748399999999999	0.0842599999999999	0.0891199999999999	0.0924999999999999	0.0949199999999999
0.635	0.0454999999999999	0.07508	0.0846	0.0894	0.0928199999999999	0.0952199999999999
0.64	0.04473	0.0752199999999999	0.0848199999999999	0.0897199999999999	0.0929999999999999	0.0955199999999999
0.645	0.043746	0.07536	0.0850999999999999	0.0900199999999999	0.0932199999999999	0.0956999999999999
0.65	0.04296	0.07542	0.0853799999999999	0.0902999999999999	0.0935599999999999	0.0957999999999999
0.655	0.042322	0.07534	0.0855799999999999	0.09058	0.0937999999999999	0.09602
0.66	0.041736	0.07528	0.0859199999999999	0.09086	0.0939999999999999	0.0962199999999999
0.665	0.04141	0.0753799999999999	0.0864199999999999	0.09112	0.0943199999999999	0.0963399999999999
0.67	0.04119	0.0754399999999999	0.0867399999999999	0.09136	0.09454	0.09654
0.675	0.04074	0.0752999999999999	0.0868999999999999	0.0916799999999999	0.09462	0.09668
0.68	0.04006	0.0750999999999999	0.0870799999999999	0.0919799999999999	0.0948	0.0967
0.685	0.03926	0.0749000000000001	0.0871200000000001	0.0921400000000001	0.0949800000000002	0.0967400000000002
0.69	0.0385	0.0746200000000001	0.0870600000000001	0.0922600000000001	0.0951200000000002	0.0968800000000002
0.695	0.0378	0.0743200000000001	0.0871400000000001	0.0923600000000001	0.0953400000000001	0.0970400000000001
0.7	0.03708	0.0741400000000001	0.0873600000000001	0.0924200000000002	0.0955400000000001	0.0971800000000001
0.705	0.03642	0.0739200000000001	0.0875800000000001	0.0925200000000002	0.0955000000000001	0.09722
0.71	0.0357799999999999	0.0735	0.0876399999999999	0.0926599999999999	0.0953799999999999	0.0972199999999998
0.715	0.03508	0.07304	0.0875599999999999	0.0927399999999999	0.0954199999999999	0.0972399999999999
0.72	0.0344200000000001	0.0726200000000001	0.0875600000000002	0.0927400000000001	0.0954400000000001	0.0971800000000002
0.725	0.0337600000000001	0.0720400000000001	0.0875000000000002	0.0926800000000001	0.0953200000000001	0.0970800000000002
0.73	0.03306	0.0714000000000001	0.0872800000000002	0.0926200000000001	0.0953600000000001	0.0971200000000002
0.735	0.0324000000000001	0.0709	0.0871600000000002	0.0925800000000001	0.0955000000000002	0.0971800000000002
0.74	0.0317200000000001	0.07042	0.0872200000000002	0.0927000000000002	0.0955200000000002	0.0971800000000002
0.745	0.031	0.0698599999999999	0.08712	0.0928799999999999	0.09562	0.09718
