|Vgs|	Gm_|Vds|=0.01V	Gm_|Vds|=0.02V	Gm_|Vds|=0.03V	Gm_|Vds|=0.04V	Gm_|Vds|=0.05V	Gm_|Vds|=0.06V	Gm_|Vds|=0.07V	Gm_|Vds|=0.08V	Gm_|Vds|=0.09V	Gm_|Vds|=0.1V
-0.3	4.01200000000011e-08	4.16000000000017e-08	3.48800000000009e-08	3.46800000000019e-08	5.6120000000001e-08	5.05199999999999e-08	4.58400000000008e-08	5.20400000000014e-08	5.5360000000001e-08	9.10400000000027e-08
-0.295	5.50633333333336e-08	5.88800000000006e-08	5.64366666666667e-08	5.6643333333334e-08	7.19533333333333e-08	6.79833333333329e-08	6.77866666666667e-08	7.28100000000003e-08	7.60233333333332e-08	1.11030000000001e-07
-0.29	7.41140000000002e-08	7.94140000000004e-08	8.0398e-08	8.33200000000004e-08	9.24859999999999e-08	9.13359999999998e-08	9.4414e-08	9.86580000000002e-08	1.0224e-07	1.29188e-07
-0.285	9.1712e-08	9.69359999999999e-08	1.01016e-07	1.04894e-07	1.1128e-07	1.12758e-07	1.1742e-07	1.21188e-07	1.27582e-07	1.48038e-07
-0.28	1.1007e-07	1.14968e-07	1.21986e-07	1.27056e-07	1.31176e-07	1.3605e-07	1.42294e-07	1.45302e-07	1.54248e-07	1.68494e-07
-0.275	1.2811e-07	1.32358e-07	1.40094e-07	1.46882e-07	1.5027e-07	1.5712e-07	1.6471e-07	1.69894e-07	1.78528e-07	1.89442e-07
-0.27	1.4639e-07	1.5058e-07	1.58144e-07	1.65696e-07	1.70842e-07	1.78248e-07	1.8636e-07	1.95604e-07	2.02964e-07	2.13202e-07
-0.265	1.64694e-07	1.70322e-07	1.7849e-07	1.85952e-07	1.93774e-07	2.01852e-07	2.09472e-07	2.21864e-07	2.29562e-07	2.3984e-07
-0.26	1.84916e-07	1.9214e-07	2.00672e-07	2.0843e-07	2.1883e-07	2.2674e-07	2.35142e-07	2.49726e-07	2.5861e-07	2.69984e-07
-0.255	2.0794e-07	2.16122e-07	2.2984e-07	2.33868e-07	2.4667e-07	2.54452e-07	2.65664e-07	2.81066e-07	2.90996e-07	3.04064e-07
-0.25	2.3214e-07	2.41574e-07	2.66302e-07	2.6228e-07	2.76684e-07	2.8684e-07	2.99648e-07	3.1432e-07	3.27112e-07	3.41116e-07
-0.245	2.588e-07	2.69788e-07	3.0081e-07	2.93506e-07	3.08892e-07	3.22422e-07	3.36282e-07	3.49082e-07	3.6714e-07	3.82276e-07
-0.24	2.89662e-07	3.01734e-07	3.34306e-07	3.2857e-07	3.44408e-07	3.60728e-07	3.7732e-07	3.89498e-07	4.11042e-07	4.27884e-07
-0.235	3.23392000000002e-07	3.37208000000002e-07	3.71698000000001e-07	3.67754000000002e-07	3.83548000000002e-07	4.03622000000002e-07	4.21608000000002e-07	4.37118000000002e-07	4.58212000000002e-07	4.78066000000002e-07
-0.23	3.60268000000002e-07	3.76898000000002e-07	4.08420000000001e-07	4.10438000000002e-07	4.28384000000002e-07	4.51500000000002e-07	4.69092000000002e-07	4.88860000000002e-07	5.10184000000002e-07	5.33898000000002e-07
-0.225	4.02232000000002e-07	4.21026000000002e-07	4.45086000000001e-07	4.57336000000002e-07	4.80142000000002e-07	5.04128000000001e-07	5.23176000000002e-07	5.45074000000002e-07	5.69552000000002e-07	5.95998000000002e-07
-0.22	4.49134000000001e-07	4.69674000000002e-07	4.90564000000001e-07	5.10180000000002e-07	5.36508000000001e-07	5.62786000000001e-07	5.83384000000002e-07	6.08898000000002e-07	6.36262000000002e-07	6.65130000000002e-07
-0.215	5.00350000000001e-07	5.24078000000001e-07	5.45844000000001e-07	5.69256000000002e-07	5.97916000000001e-07	6.27848000000002e-07	6.50716000000002e-07	6.80380000000002e-07	7.10136000000002e-07	7.42414000000002e-07
-0.21	5.57418e-07	5.84505999999999e-07	6.08166e-07	6.35207999999999e-07	6.66899999999999e-07	6.99578e-07	7.27637999999999e-07	7.59615999999999e-07	7.92701999999999e-07	8.27271999999999e-07
-0.205	6.21901999999999e-07	6.51401999999999e-07	6.77749999999999e-07	7.08243999999999e-07	7.43147999999999e-07	7.79453999999999e-07	8.11571999999999e-07	8.47437999999999e-07	8.84565999999999e-07	9.19857999999999e-07
-0.2	6.93655999999999e-07	7.26873999999999e-07	7.55585999999999e-07	7.88383999999999e-07	8.27453999999999e-07	8.68176e-07	9.03109999999999e-07	9.44099999999999e-07	9.84899999999999e-07	1.023282e-06
-0.195	7.73607999999999e-07	8.10699999999999e-07	8.43417999999999e-07	8.78709999999999e-07	9.22169999999999e-07	9.66025999999999e-07	1.00626e-06	1.050972e-06	1.09497e-06	1.138012e-06
-0.19	8.63959999999999e-07	9.03049999999999e-07	9.40821999999999e-07	9.80645999999999e-07	1.027912e-06	1.074742e-06	1.12095e-06	1.169802e-06	1.218992e-06	1.266258e-06
-0.185	9.64945999999999e-07	1.006666e-06	1.048994e-06	1.093844e-06	1.145816e-06	1.1965e-06	1.246718e-06	1.301704e-06	1.358358e-06	1.412816e-06
-0.18	1.076382e-06	1.122614e-06	1.17095e-06	1.221744e-06	1.278154e-06	1.332484e-06	1.387688e-06	1.450318e-06	1.513032e-06	1.577278e-06
-0.175	1.199794e-06	1.250662e-06	1.305554e-06	1.36623e-06	1.424926e-06	1.483498e-06	1.547908e-06	1.617486e-06	1.68623e-06	1.758328e-06
-0.17	1.335982e-06	1.394412e-06	1.454552e-06	1.524384e-06	1.586142e-06	1.651954e-06	1.727542e-06	1.803006e-06	1.881734e-06	1.9589e-06
-0.165	1.488498e-06	1.557218e-06	1.623652e-06	1.697376e-06	1.768352e-06	1.842046e-06	1.926152e-06	2.010358e-06	2.099164e-06	2.183e-06
-0.16	1.660808e-06	1.73904e-06	1.81379e-06	1.890654e-06	1.97365e-06	2.05625e-06	2.14713e-06	2.242e-06	2.3398e-06	2.4306e-06
-0.155	1.85338e-06	1.939962e-06	2.023978e-06	2.106546e-06	2.199248e-06	2.295338e-06	2.3934e-06	2.5104e-06	2.607e-06	2.7056e-06
-0.15	2.070046e-06	2.163994e-06	2.258628e-06	2.346222e-06	2.4526e-06	2.5648e-06	2.6658e-06	2.81e-06	2.903e-06	3.0148e-06
-0.145	2.312964e-06	2.417636e-06	2.521e-06	2.6124e-06	2.7406e-06	2.8636e-06	2.97e-06	3.1238e-06	3.2352e-06	3.3596e-06
-0.14	2.580738e-06	2.7e-06	2.8108e-06	2.9128e-06	3.059e-06	3.192e-06	3.3142e-06	3.4704e-06	3.6112e-06	3.7416e-06
-0.135	2.8776e-06	3.0106e-06	3.135e-06	3.2506e-06	3.4108e-06	3.5584e-06	3.6968e-06	3.8596e-06	4.0266e-06	4.1708e-06
-0.13	3.2116e-06	3.3636e-06	3.5034e-06	3.6252e-06	3.806e-06	3.965e-06	4.1202e-06	4.285e-06	4.4818e-06	4.6588e-06
-0.125	3.5868e-06	3.7624e-06	3.9132e-06	4.047e-06	4.2436e-06	4.4156e-06	4.5932e-06	4.7664e-06	4.99079999999999e-06	5.2002e-06
-0.12	4.0072e-06	4.1942e-06	4.3666e-06	4.5248e-06	4.731e-06	4.923e-06	5.1226e-06	5.322e-06	5.56499999999999e-06	5.7966e-06
-0.115	4.4798e-06	4.6702e-06	4.8754e-06	5.059e-06	5.277e-06	5.4948e-06	5.7162e-06	5.94839999999999e-06	6.2044e-06	6.46399999999999e-06
-0.11	5.01200000000001e-06	5.21980000000001e-06	5.44440000000001e-06	5.65600000000001e-06	5.88880000000001e-06	6.12820000000001e-06	6.38000000000001e-06	6.65420000000001e-06	6.91400000000001e-06	7.20900000000001e-06
-0.105	5.60560000000001e-06	5.83960000000001e-06	6.08280000000001e-06	6.32480000000001e-06	6.58000000000001e-06	6.83680000000001e-06	7.12380000000001e-06	7.43640000000001e-06	7.71820000000001e-06	8.03680000000001e-06
-0.1	6.26740000000001e-06	6.52260000000001e-06	6.80620000000001e-06	7.06460000000001e-06	7.35460000000001e-06	7.64540000000001e-06	7.96460000000001e-06	8.29660000000001e-06	8.62640000000001e-06	8.95700000000001e-06
-0.095	7.00720000000001e-06	7.28940000000001e-06	7.60600000000001e-06	7.88260000000001e-06	8.21460000000001e-06	8.54740000000001e-06	8.90200000000001e-06	9.25940000000001e-06	9.63040000000001e-06	9.99460000000001e-06
-0.09	7.83680000000001e-06	8.14900000000001e-06	8.48320000000001e-06	8.79320000000001e-06	9.18040000000001e-06	9.54160000000001e-06	9.94280000000001e-06	1.03334e-05	1.07486e-05	1.11684e-05
-0.085	8.76599999999999e-06	9.10739999999999e-06	9.46379999999999e-06	9.81459999999999e-06	1.02664e-05	1.06682e-05	1.11026e-05	1.15308e-05	1.2003e-05	1.24648e-05
-0.08	9.79299999999999e-06	1.01842e-05	1.05556e-05	1.09708e-05	1.14716e-05	1.193e-05	1.23826e-05	1.28662e-05	1.33996e-05	1.3893e-05
-0.075	1.09208e-05	1.13876e-05	1.17932e-05	1.22636e-05	1.28022e-05	1.3299e-05	1.37996e-05	1.43564e-05	1.49514e-05	1.54986e-05
-0.07	1.2182e-05	1.27254e-05	1.32018e-05	1.37122e-05	1.42906e-05	1.4844e-05	1.53928e-05	1.60336e-05	1.66888e-05	1.72744e-05
-0.0649999999999999	1.36122e-05	1.42272e-05	1.4771e-05	1.53538e-05	1.5973e-05	1.6618e-05	1.71686e-05	1.78872e-05	1.8623e-05	1.92346e-05
-0.0599999999999999	1.52178e-05	1.59088e-05	1.65316e-05	1.71764e-05	1.78306e-05	1.8555e-05	1.9162e-05	1.99264e-05	2.07636e-05	2.1462e-05
-0.0549999999999999	1.70394e-05	1.77696e-05	1.84864e-05	1.91716e-05	1.98708e-05	2.06758e-05	2.14376e-05	2.22224e-05	2.3157e-05	2.3977e-05
-0.0499999999999999	1.91154e-05	1.98378e-05	2.06206e-05	2.14132e-05	2.21952e-05	2.31004e-05	2.39678e-05	2.48422e-05	2.58672e-05	2.68112000000001e-05
-0.0449999999999999	2.13930000000001e-05	2.21616000000001e-05	2.30184000000001e-05	2.39584000000001e-05	2.48304000000001e-05	2.58520000000001e-05	2.67560000000001e-05	2.78066000000001e-05	2.89168000000001e-05	2.99876000000001e-05
-0.0399999999999999	2.38736000000001e-05	2.47752000000001e-05	2.57462000000001e-05	2.67922000000001e-05	2.77566000000001e-05	2.89108000000001e-05	2.99034000000001e-05	3.11222000000001e-05	3.22834000000001e-05	3.35054000000001e-05
-0.035	2.66778000000001e-05	2.77110000000001e-05	2.87560000000001e-05	2.99648000000001e-05	3.10640000000001e-05	3.23334000000001e-05	3.34590000000001e-05	3.48474000000001e-05	3.60382000000001e-05	3.74170000000001e-05
-0.03	2.98516000000001e-05	3.10284000000001e-05	3.21340000000001e-05	3.35780000000001e-05	3.47870000000001e-05	3.61914000000001e-05	3.74000000000001e-05	3.90100000000001e-05	4.02860000000001e-05	4.18270000000001e-05
-0.025	3.3389e-05	3.47652e-05	3.60178e-05	3.76044e-05	3.8919e-05	4.0479e-05	4.1781e-05	4.3551e-05	4.5017e-05	4.6787e-05
-0.02	3.73904e-05	3.8933e-05	4.0337e-05	4.2033e-05	4.3518e-05	4.5223e-05	4.6726e-05	4.85759999999999e-05	5.0298e-05	5.2316e-05
-0.015	4.1904e-05	4.358e-05	4.5132e-05	4.7003e-05	4.8612e-05	5.0524e-05	5.2249e-05	5.42929999999999e-05	5.6224e-05	5.8469e-05
-0.01	4.6923e-05	4.8788e-05	5.0577e-05	5.2549e-05	5.4296e-05	5.6414e-05	5.8361e-05	6.06569999999999e-05	6.27759999999999e-05	6.52969999999999e-05
-0.005	5.2478e-05	5.4575e-05	5.6595e-05	5.8673e-05	6.0637e-05	6.2959e-05	6.51829999999999e-05	6.76849999999999e-05	7.00649999999999e-05	7.27999999999999e-05
-0	5.86619999999999e-05	6.10599999999999e-05	6.31619999999999e-05	6.5594e-05	6.77299999999999e-05	7.03309999999999e-05	7.28129999999999e-05	7.55659999999999e-05	7.82349999999999e-05	8.10819999999999e-05
0.005	6.56179999999999e-05	6.83709999999999e-05	7.0507e-05	7.34259999999999e-05	7.57449999999999e-05	7.85799999999999e-05	8.13309999999999e-05	8.4401e-05	8.73469999999999e-05	9.03849999999999e-05
0.01	7.33339999999999e-05	7.63289999999999e-05	7.87649999999999e-05	8.20019999999999e-05	8.46379999999999e-05	8.77389999999999e-05	9.08259999999999e-05	9.41689999999999e-05	9.75209999999999e-05	0.000100752
0.015	8.19539999999999e-05	8.51639999999999e-05	8.80169999999999e-05	9.15019999999999e-05	9.45609999999999e-05	9.81039999999999e-05	0.000101406	0.00010501	0.000108911	0.000112406
0.02	9.16689999999999e-05	9.52409999999999e-05	9.83229999999999e-05	0.000102174	0.000105726	0.000109746	0.000113127	0.000117233	0.000121533	0.000125611
0.025	0.000102462	0.000106365	0.000109912	0.000114057	0.000118076	0.00012258	0.000126371	0.000131022	0.00013554	0.000140271
0.03	0.000114403	0.000118774	0.000122883	0.000127286	0.000131799	0.00013683	0.000141312	0.000146197	0.000151192	0.000156492
0.035	0.000127849	0.000132934	0.000137202	0.000142114	0.000147183	0.000152793	0.000157661	0.000162961	0.000168676	0.000174683
0.04	0.000142947	0.000148605	0.000153181	0.00015872	0.000164212	0.000170593	0.00017581	0.000181763	0.000188116	0.000194864
0.045	0.000159768	0.000165862	0.000171294	0.000177226	0.000183308	0.000190558	0.000196327	0.000202659	0.000209781	0.000217196
0.05	0.00017874	0.000185375	0.000191529	0.000198009	0.000204657	0.000212699	0.000218894	0.000226015	0.000233987	0.000241935
0.055	0.000199982	0.000207186	0.000213649	0.000221046	0.000228319	0.000237145	0.000243991	0.000252384	0.000260922	0.000269552
0.0600000000000001	0.00022344	0.000231302	0.000238256	0.000246236	0.000254935	0.000264302	0.000272289	0.000281545	0.000290627	0.000300805
0.0650000000000001	0.000249265	0.000258163	0.000268108	0.00027469	0.000284498	0.000294214	0.000303407	0.00031369	0.000323715	0.000335236
0.0700000000000001	0.000277907	0.000287598	0.000300981	0.000306743	0.000316861	0.0003276	0.000337717	0.000349716	0.000360883	0.000372263
0.0750000000000001	0.000309889000000001	0.000320035000000001	0.000333006000000001	0.000341717000000001	0.000352766000000001	0.000364999000000001	0.000376080000000001	0.000389300000000001	0.000401600000000001	0.000413740000000001
0.0800000000000001	0.000345340000000001	0.000356499000000002	0.000369252000000002	0.000380620000000002	0.000392980000000002	0.000406260000000002	0.000418800000000002	0.000432740000000002	0.000446560000000002	0.000460900000000002
0.0850000000000001	0.000384940000000001	0.000397360000000001	0.000411880000000002	0.000424860000000002	0.000437780000000002	0.000452460000000002	0.000466220000000002	0.000481940000000002	0.000497540000000002	0.000512380000000002
0.09	0.000429360000000001	0.000442980000000001	0.000456480000000002	0.000473660000000002	0.000487680000000002	0.000504720000000002	0.000518820000000002	0.000537020000000002	0.000554040000000002	0.000569420000000002
0.095	0.000478600000000001	0.000493800000000001	0.000506100000000001	0.000527040000000001	0.000543120000000002	0.000562120000000002	0.000576940000000002	0.000596940000000002	0.000615860000000002	0.000634160000000002
0.1	0.000532900000000001	0.00054958	0.000565400000000001	0.000586200000000001	0.000604240000000001	0.000624800000000001	0.000641460000000001	0.000662680000000001	0.000684360000000001	0.000705840000000001
0.105	0.000593119999999999	0.000610819999999999	0.00063012	0.0006512	0.000671219999999999	0.00069396	0.000712519999999999	0.00073528	0.000759239999999999	0.000783379999999999
0.11	0.000660299999999999	0.000679579999999999	0.000700179999999999	0.000723599999999999	0.000745319999999999	0.000770319999999999	0.000791619999999999	0.000815979999999999	0.000841259999999999	0.000868319999999999
0.115	0.000734019999999999	0.000755639999999999	0.000778999999999999	0.000804019999999999	0.000827679999999999	0.000854819999999999	0.000879959999999999	0.000905979999999999	0.000932499999999999	0.000962659999999999
0.12	0.000815279999999999	0.000839799999999999	0.000866479999999999	0.000892859999999999	0.000919779999999999	0.000948739999999999	0.000977079999999999	0.00100632	0.00103442	0.00106696
0.125	0.000906379999999999	0.000934239999999999	0.000963459999999999	0.000992039999999999	0.001022	0.0010527	0.0010842	0.0011179	0.00114788	0.00118192
0.13	0.00100806	0.0010387	0.00107158	0.0011022	0.00113414	0.00116806	0.00120272	0.0012405	0.00127436	0.00130974
0.135	0.00111944	0.00115236	0.0011895	0.0012225	0.00125748	0.0012951	0.0013327	0.00137354	0.001414	0.00145118
0.14	0.00124242	0.0012775	0.00131716	0.00135468	0.00139376	0.00143424	0.00147586	0.00151982	0.00156528	0.00160684
0.145	0.00137936	0.00141652	0.00145818	0.00150118	0.0015435	0.00158832	0.00163436	0.00168156	0.00172866	0.0017773
0.15	0.0015296	0.001569	0.00161498	0.00166302	0.00170654	0.00175936	0.00180702	0.00185768	0.00190802	0.0019624
0.155	0.00169298	0.00173564	0.00178676	0.0018405	0.00188524	0.00194556	0.00199486	0.00205064	0.00210634	0.00216506
0.16	0.0018712	0.00191918	0.00197298	0.00203318	0.00208288	0.00214722	0.00220414	0.00226388	0.00232526	0.0023892
0.165	0.0020669	0.00212194	0.00217884	0.00224398	0.00230124	0.00237056	0.0024356	0.00249776	0.00256612	0.00263406
0.17	0.00228236	0.00234388	0.00240668	0.00247718	0.0025406	0.0026157	0.00268644	0.00275316	0.00282932	0.00290096
0.175	0.0025189	0.002586	0.00265524	0.00273254	0.00280252	0.0028811	0.00296044	0.00303362	0.00311718	0.00319626
0.18	0.00277756	0.00285184	0.00292754	0.00300854	0.00309134	0.00317182	0.00326062	0.0033395	0.003432	0.003519
0.185	0.0030626	0.00314282	0.00322736	0.00331172	0.0034078	0.0034912	0.0035842	0.0036704	0.0037732	0.0038652
0.19	0.00337564	0.0034598	0.0035548	0.003647	0.0037492	0.0038378	0.0039334	0.0040306	0.0041412	0.0042408
0.195	0.0037146	0.0038044	0.0039082	0.0040104	0.0041158	0.0042136	0.0043156	0.0044214	0.0045388	0.0046484
0.2	0.00407840000000001	0.00417680000000001	0.00428680000000001	0.00439940000000001	0.00450960000000001	0.00461940000000001	0.00472840000000001	0.00484120000000001	0.00496300000000001	0.00507960000000001
0.205	0.00447600000000002	0.00458160000000002	0.00469660000000002	0.00482100000000002	0.00493580000000002	0.00505680000000002	0.00517500000000002	0.00529780000000002	0.00542180000000002	0.00554560000000002
0.21	0.00490760000000002	0.00501980000000002	0.00514340000000002	0.00527780000000002	0.00539540000000002	0.00553040000000002	0.00566000000000002	0.00579020000000002	0.00592600000000002	0.00606060000000002
0.215	0.00536760000000002	0.00549500000000002	0.00562980000000002	0.00576760000000002	0.00589260000000002	0.00604420000000002	0.00618100000000002	0.00632020000000002	0.00647400000000002	0.00661400000000002
0.22	0.00586480000000002	0.00601340000000002	0.00615720000000002	0.00629640000000002	0.00643520000000002	0.00659320000000002	0.00673820000000002	0.00689760000000002	0.00705880000000002	0.00720400000000002
0.225	0.00640900000000001	0.00657020000000001	0.00672300000000001	0.00686960000000001	0.00702180000000001	0.00717980000000001	0.00734120000000001	0.00751840000000001	0.00768300000000001	0.00784560000000001
0.23	0.00699619999999999	0.00716079999999999	0.00732579999999999	0.00748539999999999	0.00764659999999999	0.00781639999999999	0.00798959999999999	0.00817499999999999	0.00835259999999999	0.00852979999999999
0.235	0.00762219999999999	0.00779299999999999	0.00797359999999999	0.00814639999999999	0.00831839999999999	0.00850379999999999	0.00868019999999999	0.00887699999999999	0.00906419999999999	0.00924999999999999
0.24	0.00829099999999999	0.00846799999999999	0.00866759999999999	0.00885039999999999	0.00903919999999999	0.00922759999999999	0.00942639999999999	0.00962819999999999	0.00981459999999999	0.0100186
0.245	0.00900819999999999	0.00919039999999999	0.00940159999999999	0.00959519999999999	0.00979959999999999	0.00998999999999999	0.0102192	0.010418	0.0106156	0.0108342
0.25	0.00977119999999999	0.00996799999999999	0.0101816	0.0103894	0.010604	0.0108132	0.0110416	0.011254	0.0114688	0.0116962
0.255	0.0105748	0.0107926	0.0110172	0.0112344	0.011455	0.0116926	0.0119122	0.0121444	0.0123666	0.0126088
0.26	0.0114324	0.0116606	0.0118958	0.0121246	0.0123522	0.012611	0.0128494	0.013088	0.0133214	0.0135738
0.265	0.012347	0.0125788	0.0128102	0.01307	0.0133044	0.0135804	0.0138274	0.0140778	0.0143352	0.0145994
0.27	0.0133026	0.0135426	0.0137812	0.014067	0.0143156	0.014609	0.014846	0.0151172	0.0154002	0.0156674
0.275	0.0143016	0.0145588	0.0148208	0.0151114	0.0153852	0.0156786	0.015937	0.0162164	0.0165182	0.016777
0.28	0.015359	0.0156376	0.0159114	0.0162126	0.0165066	0.0167848	0.0170832	0.0173668	0.0176762	0.0179518
0.285	0.0164688	0.0167594	0.0170378	0.0173614	0.0176642	0.0179472	0.01826	0.0185546	0.0188656	0.0191772
0.29	0.017621	0.017917	0.018217	0.0185612	0.0188558	0.0191664	0.0194818	0.0197854	0.0201022	0.0204338
0.295	0.018829	0.0191356	0.019456	0.0198156	0.0200988	0.0204276	0.0207578	0.0210708	0.0213968	0.0217398
0.3	0.0200906	0.0204076	0.020731	0.0211094	0.0213898	0.0217316	0.0220742	0.0223978	0.0227358	0.0230976
0.305	0.021394	0.021707	0.0220446	0.0224418	0.0227154	0.0230852	0.023434	0.023778	0.024112	0.024484
0.31	0.0227386	0.023068	0.023416	0.023824	0.024096	0.024484	0.024842	0.025214	0.025546	0.025906
0.315	0.024126	0.024496	0.024824	0.02524	0.025542	0.025928	0.026296	0.026668	0.027024	0.027376
0.32	0.02556	0.025944	0.026268	0.026684	0.02702	0.027416	0.027796	0.028158	0.028522	0.0289
0.325	0.02703	0.027406	0.02777	0.028176	0.02854	0.028932	0.0293200000000001	0.0297080000000001	0.030068	0.030456
0.33	0.0285280000000001	0.0289180000000001	0.0293040000000001	0.0297180000000001	0.0301140000000001	0.0304860000000001	0.0308540000000001	0.0312780000000001	0.0316560000000001	0.0320340000000001
0.335	0.0300660000000001	0.0304640000000001	0.0308640000000001	0.0312900000000001	0.0316860000000001	0.0320800000000001	0.0324320000000001	0.0328660000000001	0.0332560000000001	0.0336520000000001
0.34	0.0316540000000001	0.0320180000000001	0.0324740000000001	0.0328740000000001	0.0332520000000001	0.0336800000000001	0.0340480000000001	0.0344820000000001	0.0348740000000001	0.0352900000000001
