Vgs	Gm_Vds=0.01V	Gm_Vds=0.02V	Gm_Vds=0.03V	Gm_Vds=0.04V	Gm_Vds=0.05V	Gm_Vds=0.06V	Gm_Vds=0.07V	Gm_Vds=0.08V	Gm_Vds=0.09V	Gm_Vds=0.1V
-0.3	2.53254e-07	8.65999999999998e-09	-1.60922e-07	1.27e-08	-2.98e-09	-1.944e-08	4.86999999999999e-08	4.138e-08	1.5614e-07	4.62000000000001e-09
-0.295	1.74202166666666e-07	5.78166666666666e-09	-1.04037e-07	2.36666666666667e-09	-2.84333333333333e-09	-1.98083333333333e-08	2.5075e-08	2.29633333333333e-08	1.0548e-07	-5.39999999999989e-10
-0.29	1.094813e-07	3.729e-09	-5.68284999999999e-08	5.04500000000002e-09	2.37600000000002e-09	-4.43799999999996e-09	2.2477e-08	7.19199999999995e-09	5.94409999999999e-08	-7.66200000000003e-09
-0.285	6.13728e-08	4.97000000000003e-10	-2.10463999999999e-08	3.10800000000002e-09	-3.51999999999979e-10	3.39900000000004e-09	1.6813e-08	-5.16000000000004e-09	2.4604e-08	-1.3566e-08
-0.28	2.49478e-08	-3.22999999999997e-10	6.71630000000002e-09	-1.58799999999998e-09	2.55300000000002e-09	5.56200000000003e-09	9.00600000000003e-09	-8.72100000000003e-09	-3.16400000000002e-09	-1.1059e-08
-0.275	1.19115e-08	3.657e-09	2.93526e-08	1.19800000000002e-09	9.50500000000001e-09	6.27100000000003e-09	6.90900000000003e-09	2.24199999999996e-09	-9.28700000000001e-09	4.01999999999996e-09
-0.27	1.06644e-08	4.989e-09	5.43271e-08	8.61300000000001e-09	1.0291e-08	1.71200000000003e-09	3.01800000000004e-09	1.497e-08	3.25899999999998e-09	1.8285e-08
-0.265	8.65239999999999e-09	2.296e-09	6.46720999999999e-08	8.98399999999999e-09	9.04499999999999e-09	-8.91799999999999e-09	-7.43799999999999e-09	2.3542e-08	1.6758e-08	2.7206e-08
-0.26	5.2036e-09	-1.24000000000001e-10	5.98133999999999e-08	7.093e-09	1.0261e-08	-1.0706e-08	-1.5164e-08	3.0845e-08	2.5956e-08	3.3248e-08
-0.255	1.2187e-09	-5.50000000000005e-11	5.31536e-08	8.32899999999999e-09	6.49699999999999e-09	1.308e-09	-1.7889e-08	2.9746e-08	3.0611e-08	2.6807e-08
-0.25	-2.4085e-09	3.86599999999999e-09	3.39822e-08	4.553e-09	-3.913e-09	1.4867e-08	-9.53399999999999e-09	1.7175e-08	2.2604e-08	1.5464e-08
-0.245	-5.8857e-09	7.314e-09	2.94879999999999e-09	-5.934e-09	-1.1659e-08	2.2566e-08	8.94500000000003e-09	6.12099999999999e-09	1.2829e-08	1.7943e-08
-0.24	-4.4151e-09	8.88e-09	-1.4572e-08	-1.3133e-08	-7.77299999999999e-09	2.5588e-08	2.53310000000001e-08	7.61700000000001e-09	1.8674e-08	2.3479e-08
-0.235	3.7199e-09	1.118e-08	-9.66300000000002e-09	-8.46800000000001e-09	5.36399999999999e-09	2.9544e-08	4.1462e-08	1.908e-08	2.6606e-08	2.4592e-08
-0.23	9.45199999999999e-09	7.61100000000001e-09	7.88099999999997e-09	5.62699999999997e-09	2.1344e-08	3.2463e-08	5.2354e-08	3.099e-08	3.036e-08	2.921e-08
-0.225	1.03931e-08	-3.39599999999998e-09	2.1303e-08	2.2392e-08	3.7888e-08	2.9622e-08	4.685e-08	3.9777e-08	3.8737e-08	2.8117e-08
-0.22	1.04478e-08	-1.0657e-08	2.439e-08	3.8853e-08	4.8701e-08	2.6698e-08	3.2116e-08	4.5331e-08	3.9447e-08	1.5187e-08
-0.215	5.60279999999999e-09	-5.15199999999998e-09	3.2957e-08	4.8832e-08	4.7612e-08	2.6853e-08	1.8895e-08	4.2015e-08	2.5458e-08	5.964e-09
-0.21	-4.89270000000001e-09	7.74400000000004e-09	4.4577e-08	4.6156e-08	3.8092e-08	2.0118e-08	6.879e-09	3.0585e-08	1.4649e-08	8.85200000000001e-09
-0.205	-1.2203e-08	2.1332e-08	4.0478e-08	3.4811e-08	2.5448e-08	7.22699999999999e-09	4.81e-09	2.1194e-08	1.5483e-08	1.9266e-08
-0.2	-1.5055e-08	3.8848e-08	3.2976e-08	2.1552e-08	1.2485e-08	3.49299999999999e-09	1.4646e-08	1.9232e-08	2.3494e-08	3.4607e-08
-0.195	-8.80300000000001e-09	5.2093e-08	3.5641e-08	8.87400000000001e-09	7.973e-09	1.1321e-08	2.8819e-08	2.5062e-08	3.6828e-08	5.5594e-08
-0.19	8.81499999999999e-09	4.9364e-08	3.2881e-08	4.782e-09	1.4081e-08	2.5655e-08	4.9248e-08	3.8713e-08	5.5148e-08	8.3057e-08
-0.185	2.7634e-08	3.918e-08	1.8561e-08	1.2157e-08	2.551e-08	4.5383e-08	7.5236e-08	5.8694e-08	7.9743e-08	1.13532e-07
-0.18	4.4663e-08	2.9893e-08	9.737e-09	2.5317e-08	4.2493e-08	7.00680000000001e-08	1.0284e-07	8.29360000000001e-08	1.08886e-07	1.43663e-07
-0.175	5.6063e-08	1.7085e-08	1.3502e-08	4.2952e-08	6.6199e-08	9.8452e-08	1.30641e-07	1.09488e-07	1.39339e-07	1.7377e-07
-0.17	5.3548e-08	9.529e-09	2.4107e-08	6.5946e-08	9.4439e-08	1.27679e-07	1.58549e-07	1.36107e-07	1.70805e-07	2.04187e-07
-0.165	4.0167e-08	1.493e-08	4.0889e-08	9.3278e-08	1.23818e-07	1.56398e-07	1.85662e-07	1.60323e-07	2.03514e-07	2.33175e-07
-0.16	2.547e-08	2.7318e-08	6.4281e-08	1.21885e-07	1.53646e-07	1.87479e-07	2.11159e-07	1.98621e-07	2.28512e-07	2.57418e-07
-0.155	1.2356e-08	4.4505e-08	9.301e-08	1.50596e-07	1.84504e-07	2.1842e-07	2.35354e-07	2.45438e-07	2.44983e-07	2.77816e-07
-0.15	8.313e-09	6.73160000000001e-08	1.23836e-07	1.80026e-07	2.15182e-07	2.38302e-07	2.55654e-07	2.81794e-07	2.69749e-07	2.91058e-07
-0.145	1.6325e-08	9.5253e-08	1.54704e-07	2.09974e-07	2.36772e-07	2.43e-07	2.74337e-07	3.15108e-07	3.13823e-07	3.12674e-07
-0.14	3.0059e-08	1.25349e-07	1.8596e-07	2.40458e-07	2.44869e-07	2.57014e-07	2.89783e-07	3.43566e-07	3.58747e-07	3.61047e-07
-0.135	4.8606e-08	1.5658e-07	2.24315e-07	2.66066e-07	2.63087e-07	2.96635e-07	3.13545e-07	3.76539e-07	3.96988e-07	4.07678e-07
-0.13	7.332e-08	1.88993e-07	2.60143e-07	2.8746e-07	3.09629e-07	3.2861e-07	3.64486e-07	4.16362e-07	4.63866e-07	4.62004e-07
-0.125	1.01769e-07	2.25341e-07	2.85546e-07	3.04941e-07	3.50172e-07	3.64666e-07	4.17521e-07	4.56228e-07	5.3934e-07	5.56078e-07
-0.12	1.33114e-07	2.59022e-07	3.05008e-07	3.28119e-07	3.86171e-07	4.46177e-07	4.75704e-07	5.27748e-07	5.8778e-07	6.41448e-07
-0.115	1.69078e-07	2.82288e-07	3.23379e-07	3.76982e-07	4.6517e-07	5.20598e-07	5.70034e-07	6.2781e-07	6.65852e-07	7.13744e-07
-0.11	2.01484e-07	2.95373e-07	3.6114e-07	4.30117e-07	5.43626e-07	5.6985e-07	6.61364e-07	7.0905e-07	7.816e-07	8.31982e-07
-0.105	2.30254e-07	3.13763e-07	4.06979e-07	4.8843e-07	5.89592e-07	6.61966e-07	7.39934e-07	8.1398e-07	8.77276e-07	9.55122e-07
-0.1	2.62127e-07	3.55272e-07	4.54558e-07	5.85518e-07	6.7632e-07	7.66988e-07	8.58954e-07	9.57474e-07	9.9818e-07	1.074596e-06
-0.095	2.86947e-07	3.97442e-07	5.40792e-07	6.82306e-07	7.9119e-07	8.56294e-07	9.85804e-07	1.082208e-06	1.160962e-06	1.248298e-06
-0.09	2.92816e-07	4.46074e-07	6.38968e-07	7.60488e-07	8.90958e-07	9.86598e-07	1.10665e-06	1.23671e-06	1.307592e-06	1.426454e-06
-0.085	3.06486e-07	5.36072e-07	7.1083e-07	8.81548e-07	1.031614e-06	1.133738e-06	1.27711e-06	1.432608e-06	1.48809e-06	1.604194e-06
-0.08	3.53893e-07	6.27306e-07	8.1806e-07	1.017978e-06	1.195746e-06	1.285444e-06	1.463368e-06	1.615058e-06	1.718552e-06	1.854604e-06
-0.075	4.00176e-07	6.96944e-07	9.53076e-07	1.1419e-06	1.34311e-06	1.494538e-06	1.656766e-06	1.838944e-06	1.94235e-06	2.134592e-06
-0.07	4.46808e-07	8.08504e-07	1.067772e-06	1.31712e-06	1.532934e-06	1.722028e-06	1.911014e-06	2.109344e-06	2.20897e-06	2.415878e-06
-0.065	5.39972e-07	9.42996e-07	1.22807e-06	1.517666e-06	1.754412e-06	1.9549e-06	2.196444e-06	2.376712e-06	2.55255e-06	2.770824e-06
-0.06	6.40128e-07	1.062106e-06	1.423088e-06	1.717702e-06	1.979072e-06	2.249478e-06	2.490756e-06	2.704234e-06	2.9248e-06	3.201034e-06
-0.055	7.11958e-07	1.223948e-06	1.60436e-06	1.977634e-06	2.27321e-06	2.581004e-06	2.844474e-06	3.113578e-06	3.320708e-06	3.645508e-06
-0.05	8.21048e-07	1.411852e-06	1.84039e-06	2.27893e-06	2.616606e-06	2.940642e-06	3.265888e-06	3.56804e-06	3.767182e-06	4.12931e-06
-0.045	9.64008e-07	1.595146e-06	2.120592e-06	2.59932e-06	2.969802e-06	3.377498e-06	3.736016e-06	4.107842e-06	4.284994e-06	4.718e-06
-0.04	1.095518e-06	1.832116e-06	2.393608e-06	2.982254e-06	3.39248e-06	3.879108e-06	4.281454e-06	4.727972e-06	4.894842e-06	5.385e-06
-0.035	1.263434e-06	2.107794e-06	2.727744e-06	3.415132e-06	3.890324e-06	4.429326e-06	4.93204e-06	5.3926e-06	5.6024e-06	6.1168e-06
-0.03	1.463864e-06	2.382334e-06	3.141844e-06	3.882294e-06	4.440404e-06	5.048614e-06	5.6756e-06	6.1542e-06	6.4204e-06	6.9874e-06
-0.025	1.660174e-06	2.71749e-06	3.610156e-06	4.417854e-06	5.0864e-06	5.7352e-06	6.4882e-06	7.0632e-06	7.3888e-06	8.0326e-06
-0.02	1.88187e-06	3.129216e-06	4.164656e-06	5.0364e-06	5.8326e-06	6.5248e-06	7.3858e-06	8.0676e-06	8.5162e-06	9.2468e-06
-0.015	2.111342e-06	3.579674e-06	4.791072e-06	5.7616e-06	6.6698e-06	7.4698e-06	8.4166e-06	9.173e-06	9.8078e-06	1.064e-05
-0.01	2.347162e-06	4.115292e-06	5.4826e-06	6.6444e-06	7.6574e-06	8.5754e-06	9.6002e-06	1.04884e-05	1.12776e-05	1.21742e-05
-0.005	2.664234e-06	4.755044e-06	6.311e-06	7.663e-06	8.7766e-06	9.8582e-06	1.09524e-05	1.20058e-05	1.2927e-05	1.38584e-05
0	3.068436e-06	5.439e-06	7.2706e-06	8.7728e-06	1.00056e-05	1.13314e-05	1.25492e-05	1.369e-05	1.47842e-05	1.58166e-05
0.005	3.595896e-06	6.181e-06	8.2938e-06	1.00328e-05	1.14582e-05	1.29874e-05	1.44156e-05	1.5637e-05	1.68728e-05	1.80446e-05
0.01	4.20938e-06	7.034e-06	9.4248e-06	1.16526e-05	1.31508e-05	1.48478e-05	1.64902e-05	1.79172e-05	1.92088e-05	2.05582e-05
0.015	4.81821e-06	8.0022e-06	1.07502e-05	1.34194e-05	1.50304e-05	1.69418e-05	1.88536e-05	2.04736e-05	2.19526e-05	2.34932e-05
0.02	5.52e-06	9.0952e-06	1.22812e-05	1.50142e-05	1.72016e-05	1.9299e-05	2.15698e-05	2.33608e-05	2.5213e-05	2.68392e-05
0.025	6.3124e-06	1.036e-05	1.40244e-05	1.69116e-05	1.97538e-05	2.20256e-05	2.46084e-05	2.67446e-05	2.891e-05	3.06306e-05
0.03	7.133e-06	1.18284e-05	1.60356e-05	1.9395e-05	2.2676e-05	2.5154e-05	2.80916e-05	3.05398e-05	3.321e-05	3.50546e-05
0.035	8.0762e-06	1.35244e-05	1.83722e-05	2.21048e-05	2.59252e-05	2.865e-05	3.21594e-05	3.48466e-05	3.82348e-05	4.01136e-05
0.04	9.2442e-06	1.55418e-05	2.09942e-05	2.51266e-05	2.94956e-05	3.24964e-05	3.6673e-05	3.9937e-05	4.37806e-05	4.5745e-05
0.045	1.06034e-05	1.7901e-05	2.39702e-05	2.89998e-05	3.35916e-05	3.68558e-05	4.17002e-05	4.56648e-05	4.9999e-05	5.234e-05
0.05	1.2121e-05	2.0519e-05	2.73456e-05	3.34388e-05	3.83374e-05	4.21788e-05	4.76666e-05	5.209e-05	5.6997e-05	5.9869e-05
0.055	1.37522e-05	2.3405e-05	3.10284e-05	3.79878e-05	4.46256e-05	4.85572e-05	5.435e-05	5.9455e-05	6.4699e-05	6.7929e-05
0.06	1.55722e-05	2.6656e-05	3.53038e-05	4.31848e-05	5.17882e-05	5.588e-05	6.1879e-05	6.7683e-05	7.3519e-05	7.733e-05
0.065	1.77234e-05	3.03022e-05	4.03474e-05	4.9405e-05	5.8112e-05	6.4096e-05	7.0782e-05	7.6983e-05	8.3552e-05	8.8873e-05
0.07	2.02792e-05	3.4371e-05	4.5971e-05	5.6267e-05	6.5283e-05	7.3292e-05	8.0909e-05	8.7741e-05	9.4798e-05	0.000101935
0.075	2.37402e-05	3.90502e-05	5.2376e-05	6.3827e-05	7.4371e-05	8.3571e-05	9.2214e-05	0.0001	0.000107758	0.00011608
0.08	2.74482e-05	4.45454e-05	6.0041e-05	7.2728e-05	8.3814e-05	9.5194e-05	0.000105247	0.000114246	0.000123005	0.000132303
0.085	3.06736e-05	5.086e-05	6.8548e-05	8.2985e-05	9.4507e-05	0.000108581	0.000119938	0.000130614	0.00014046	0.000150947
0.09	3.46232e-05	5.8066e-05	7.7771e-05	9.4647e-05	0.000108565	0.00012406	0.000136365	0.000148887	0.000160284	0.00017156
0.095	3.91174e-05	6.6247e-05	8.8565e-05	0.000107785	0.000124674	0.000141746	0.000155323	0.00016959	0.000182611	0.000194495
0.1	4.34184e-05	7.5129e-05	0.000100938	0.000122627	0.000142	0.000161163	0.000176995	0.000193287	0.000207247	0.000221011
0.105	4.8892e-05	8.4947e-05	0.000114857	0.000140044	0.00016137	0.000182603	0.000201581	0.00021968	0.00023509	0.000251437
0.11	5.5726e-05	9.6265e-05	0.00013046	0.000159552	0.000183313	0.000207021	0.000228867	0.000249164	0.000266546	0.000285382
0.115	6.2889e-05	0.000109177	0.000148106	0.000180851	0.000214595	0.000234796	0.000259643	0.000282565	0.000301883	0.000323981
0.12	7.1244e-05	0.000124032	0.000168688	0.000205395	0.00024934	0.000266308	0.000297033	0.000320379	0.000343244	0.000367454
0.125	8.0869e-05	0.000141357	0.000192213	0.000233649	0.000275466	0.000302441	0.000338937	0.000363731	0.000391015	0.000415912
0.13	9.1101e-05	0.000161245	0.000217876	0.000265646	0.000305817	0.000343208	0.000382137	0.000413204	0.00044372	0.000471674
0.135	0.000102723	0.000183478	0.000246504	0.000301558	0.000347571	0.000388723	0.000431249	0.00046956	0.00050352	0.00053576
0.14	0.000118344	0.000207699	0.000279198	0.000341036	0.000388467	0.000439836	0.00048908	0.00054506	0.00057118	0.00060788
0.145	0.000135039	0.000233865	0.000315908	0.00038556	0.000434266	0.00049822	0.00055224	0.00062668	0.00064544	0.00069042
0.15	0.000148584	0.000263195	0.000357137	0.000436055	0.00049872	0.00056552	0.00062108	0.00069358	0.00072794	0.00078396
0.155	0.000165419	0.000297224	0.000403514	0.00049216	0.00057138	0.00064206	0.00070108	0.00077262	0.00082288	0.000887619999999999
0.16	0.000187465	0.000334907	0.000454947	0.0005549	0.0006468	0.00072794	0.00079506	0.00087332	0.00093212	0.0010035
0.165	0.000208858	0.000375858	0.00051274	0.000626	0.00073168	0.0008251	0.000903300000000001	0.000989760000000001	0.001055	0.0011346
0.17	0.000232822	0.000422678	0.00057784	0.00070646	0.00082506	0.00093344	0.0010236	0.00112196	0.00119334	0.00128048
0.175	0.000264506	0.00047578	0.00065046	0.00079818	0.00092878	0.00105202	0.00116024	0.00126154	0.00135316	0.0014482
0.18	0.000299161	0.00053456	0.00073332	0.000902	0.0010473	0.00118382	0.00131694	0.00141778	0.00153516	0.0016416
0.185	0.000335206	0.00060002	0.0008283	0.00101914	0.00118272	0.00133204	0.00148576	0.0016007	0.001735	0.00185396
0.19	0.000374842	0.00067348	0.00093446	0.00115176	0.00133504	0.00149868	0.00166704	0.00179208	0.00195642	0.0020882
0.195	0.000417706	0.00075638	0.00105174	0.00130008	0.00150714	0.00168678	0.00187676	0.00200582	0.00220548	0.00235148
0.2	0.00046388	0.0008489	0.00118272	0.00146372	0.0017011	0.00190792	0.00211988	0.0022796	0.00248302	0.0026462
0.205	0.0005146	0.00095254	0.00132868	0.0016415	0.00191596	0.00216036	0.00238112	0.00258916	0.00279038	0.0029782
0.21	0.00057242	0.00106998	0.00148776	0.00183552	0.00215048	0.00242658	0.00266382	0.0029104	0.00313964	0.00335874
0.215	0.00063808	0.00119746	0.00165788	0.00205362	0.00240598	0.00271022	0.00298422	0.00325498	0.00352386	0.00377146
0.22	0.0007107	0.00133382	0.00184952	0.00230184	0.00269434	0.00303132	0.0033418	0.00365004	0.00392988	0.00420986
0.225	0.00079046	0.001488	0.00207078	0.00257518	0.00301602	0.0033885	0.00373466	0.00408614	0.0043772	0.0046966
0.23	0.00087814	0.00165558	0.00231328	0.00286918	0.00336486	0.00378166	0.004177	0.0045384	0.00488	0.0052286
0.235	0.00097388	0.0018297	0.00257568	0.00319098	0.0037457	0.0042268	0.0046706	0.0050402	0.0054228	0.0057954
0.24	0.00107736	0.0020289	0.00286206	0.00354716	0.0041664	0.0047206	0.005203	0.005617	0.006022	0.0064262
0.245	0.00118642	0.00225458	0.00316578	0.00393462	0.0046222	0.0052454	0.0057704	0.006246	0.0067082	0.0071408
0.25	0.00130468	0.0024899	0.00348616	0.004352	0.0051078	0.0058014	0.00637699999999999	0.00692579999999999	0.00747059999999999	0.00792699999999999
0.255	0.00143358	0.00273936	0.0038376	0.004808	0.005632	0.00640079999999999	0.00702999999999999	0.00767819999999999	0.00828199999999999	0.00878639999999999
0.26	0.00157004	0.00301026	0.0042266	0.0053094	0.00620579999999999	0.00704119999999999	0.00773939999999999	0.00849579999999999	0.00913379999999999	0.00971519999999999
0.265	0.00172064	0.00329592	0.0046406	0.005845	0.0068286	0.00772199999999999	0.00851419999999999	0.00935839999999999	0.0100418	0.0107044
0.27	0.00188674	0.0035968	0.0050818	0.00641	0.0074904	0.0084654	0.0093604	0.010248	0.0110012	0.0117498
0.275	0.00205622	0.00391520000000001	0.00556480000000001	0.00700120000000001	0.00819920000000001	0.00927660000000001	0.0102778	0.0111658	0.0120004	0.0128342
0.28	0.00222356	0.00424800000000001	0.00607220000000001	0.00760780000000001	0.00896840000000001	0.0101318	0.011256	0.0121428	0.0130614	0.0139754
0.285	0.00239288	0.00460560000000001	0.00657940000000001	0.00822940000000001	0.00977960000000001	0.011039	0.0122708	0.0132036	0.014206	0.015188
0.29	0.00256728	0.00498900000000001	0.00709880000000001	0.00888280000000001	0.0105954	0.0120108	0.0133044	0.0143424	0.015418	0.0164436
0.295	0.00274562	0.0053766	0.007636	0.0095748	0.0114092	0.013007	0.0143728	0.0155452	0.0166966	0.017771
0.3	0.0029248	0.0057512	0.00816879999999999	0.0102926	0.012237	0.0139792	0.0154688	0.0168002	0.0180364	0.0191996
0.305	0.0031186	0.00612479999999999	0.00871419999999999	0.011043	0.0130974	0.0149576	0.0165836	0.0180892	0.0194282	0.0206888
0.31	0.0033312	0.00650199999999999	0.00929479999999999	0.0118308	0.013985	0.0159934	0.017756	0.0193794	0.0208572	0.0222014
0.315	0.003541	0.00687339999999999	0.00989939999999999	0.0126422	0.0149094	0.0170788	0.0190248	0.02068	0.0222994	0.0237412
0.32	0.0037382	0.00725299999999999	0.0105268	0.01345	0.0159138	0.0182168	0.020327	0.022051	0.0237878	0.0253148
0.325	0.0039324	0.0076374	0.0111588	0.0142274	0.016945	0.0193864	0.0215824	0.0234794	0.0253094	0.0269184
0.33	0.0041212	0.0080328	0.011755	0.014991	0.017921	0.0205448	0.0228374	0.0248446	0.026848	0.02854
0.335	0.00429220000000001	0.00844900000000001	0.0123112	0.0157494	0.018862	0.021676	0.0240868	0.026222	0.02843	0.0301740000000001
0.34	0.00444720000000001	0.00884580000000001	0.0128398	0.0164614	0.0197656	0.022738	0.025222	0.027752	0.030016	0.031856
0.345	0.00459400000000001	0.00919640000000001	0.0133466	0.0171376	0.0206076	0.023722	0.026346	0.02922	0.031554	0.033564
0.35	0.00473280000000001	0.00952600000000001	0.0138568	0.0178454	0.021444	0.024668	0.027618	0.030534	0.03305	0.035206
0.355	0.004862	0.0098204	0.0143476	0.0185532	0.022312	0.025634	0.02888	0.031912	0.034434	0.036786
0.36	0.004993	0.0100516	0.014791	0.0191776	0.023158	0.02666	0.030046	0.03325	0.035714	0.038348
0.365	0.0051134	0.0102726	0.0152	0.01972	0.02394	0.027666	0.031222	0.034316	0.037038	0.039784
0.37	0.005208	0.0105162	0.0155438	0.020212	0.024656	0.028568	0.03235	0.035332	0.038348	0.041114
0.375	0.0053004	0.010735	0.015808	0.02065	0.025294	0.029442	0.033302	0.036476	0.039598	0.0425
0.38	0.0053816	0.0109002	0.016044	0.021036	0.025828	0.030248	0.034088	0.037572	0.040866	0.043866
0.385	0.00543859999999999	0.0110378	0.016294	0.02142	0.026258	0.030834	0.034796	0.038414	0.04207	0.045142
0.39	0.0054926	0.0111444	0.01655	0.021776	0.026646	0.031114	0.035496	0.039252	0.043154	0.046412
0.395	0.0055222	0.0112044	0.016756	0.022048	0.027006	0.031396	0.036114	0.040352	0.044168	0.047612
0.4	0.00550540000000001	0.011236	0.016866	0.022274	0.02733	0.032012	0.036654	0.0412580000000001	0.0450640000000001	0.0486500000000001
0.405	0.00547800000000001	0.01128	0.016956	0.02245	0.027598	0.032562	0.037202	0.0418000000000001	0.0457920000000001	0.0495320000000001
0.41	0.00545420000000001	0.011312	0.017026	0.022532	0.027812	0.032872	0.03769	0.0423960000000001	0.0464260000000001	0.0502620000000001
0.415	0.00542820000000001	0.011284	0.017002	0.022578	0.028006	0.033308	0.03807	0.0429020000000001	0.0469840000000001	0.0509440000000001
0.42	0.0054224	0.011236	0.016958	0.022614	0.028114	0.033696	0.038336	0.04302	0.047412	0.051564
0.425	0.00543419999999999	0.011192	0.016916	0.02257	0.028102	0.033632	0.038502	0.0431319999999999	0.047772	0.05199
0.43	0.0054198	0.011102	0.016826	0.022468	0.028048	0.033456	0.038608	0.043386	0.048106	0.052374
0.435	0.0053478	0.010992	0.016702	0.022356	0.027948	0.03341	0.038676	0.043568	0.048364	0.052812
0.44	0.0052544	0.010892	0.016544	0.0222	0.027756	0.033308	0.038644	0.043674	0.04849	0.05312
0.445	0.0051604	0.010744	0.016358	0.02198	0.027524	0.033122	0.03852	0.043676	0.0485159999999999	0.053296
0.45	0.0050642	0.010584	0.016188	0.021744	0.027298	0.032858	0.03832	0.04353	0.0484999999999999	0.053414
0.455	0.0050048	0.01043	0.015994	0.021498	0.027046	0.032538	0.03803	0.043314	0.048398	0.053364
0.46	0.00495360000000001	0.01024	0.01573	0.021206	0.02674	0.032192	0.0376620000000001	0.0430580000000001	0.0481760000000001	0.0531340000000001
0.465	0.004844	0.010048	0.015442	0.020894	0.026406	0.031832	0.037224	0.0427060000000001	0.0478580000000001	0.0528020000000001
0.47	0.0047236	0.00987400000000001	0.015166	0.02058	0.026046	0.031414	0.036794	0.0422540000000001	0.0474700000000001	0.0523800000000001
0.475	0.0046058	0.00967200000000001	0.01488	0.020246	0.025624	0.03097	0.03637	0.041776	0.0469880000000001	0.0519580000000001
0.48	0.0044486	0.009484	0.014572	0.019882	0.02516	0.03056	0.035928	0.04128	0.046482	0.051556
0.485	0.0043422	0.00933199999999999	0.014294	0.019466	0.024712	0.030096	0.035458	0.04072	0.0459899999999999	0.051076
0.49	0.0042864	0.009156	0.014032	0.01904	0.024252	0.02957	0.034936	0.0401279999999999	0.045438	0.050532
