|Vgs|	Gm_|Vds|=0.15V	Gm_|Vds|=0.3V	Gm_|Vds|=0.45V	Gm_|Vds|=0.6V	Gm_|Vds|=0.75V	Gm_|Vds|=0.9V
-0.3	5.6400000000002e-09	-4.76000000000007e-09	-5.24000000000023e-09	-2.88400000000004e-08	-3.21600000000006e-08	-2.56000000000005e-07
-0.295	3.07333333333341e-09	-6.80000000000005e-10	7.06666666666588e-10	-1.61266666666667e-08	-1.26966666666667e-08	-1.78333333333334e-07
-0.29	8.22000000000049e-10	1.42499999999999e-09	4.54599999999993e-09	-1.04000000000002e-09	6.81599999999996e-09	-1.136e-07
-0.285	-8.38999999999992e-10	4.01700000000001e-09	8.79999999999996e-09	1.0882e-08	2.18520000000001e-08	-5.99999999999995e-08
-0.28	-2.893e-09	7.074e-09	1.274e-08	2.16939999999999e-08	3.69099999999999e-08	-9.20000000000023e-09
-0.275	-3.608e-09	8.21499999999999e-09	1.5942e-08	3.0052e-08	4.99799999999999e-08	2.47999999999998e-08
-0.27	-3.759e-09	9.63399999999999e-09	1.9838e-08	3.65940000000001e-08	6.25779999999999e-08	5.85999999999998e-08
-0.265	-5.49800000000001e-09	1.2735e-08	2.3882e-08	4.28300000000001e-08	7.65699999999999e-08	1.018e-07
-0.26	-6.94200000000001e-09	1.4434e-08	2.7154e-08	4.99920000000001e-08	9.16259999999999e-08	1.392e-07
-0.255	-7.07300000000001e-09	1.5087e-08	3.0628e-08	5.79260000000001e-08	1.06212e-07	1.664e-07
-0.25	-8.49000000000001e-09	1.7223e-08	3.5244e-08	6.6102e-08	1.19128e-07	1.906e-07
-0.245	-1.0618e-08	1.975e-08	3.98e-08	7.59619999999999e-08	1.3367e-07	2.222e-07
-0.24	-1.1137e-08	2.1652e-08	4.44119999999999e-08	8.69959999999999e-08	1.51908e-07	2.614e-07
-0.235	-1.2065e-08	2.46780000000001e-08	5.04240000000002e-08	9.87320000000004e-08	1.74852000000001e-07	3.04400000000002e-07
-0.23	-1.4798e-08	2.95520000000001e-08	5.73160000000002e-08	1.12856e-07	2.02546000000001e-07	3.55400000000002e-07
-0.225	-1.7196e-08	3.44220000000001e-08	6.42580000000002e-08	1.28842e-07	2.32818000000001e-07	4.15000000000001e-07
-0.22	-1.9211e-08	3.89670000000001e-08	7.26700000000002e-08	1.4462e-07	2.65968000000001e-07	4.73400000000001e-07
-0.215	-2.1913e-08	4.40500000000001e-08	8.35140000000002e-08	1.61776e-07	3.03502000000001e-07	5.36200000000001e-07
-0.21	-2.4896e-08	4.979e-08	9.56979999999999e-08	1.82146e-07	3.42796e-07	6.12199999999999e-07
-0.205	-2.7697e-08	5.5807e-08	1.08742e-07	2.04706e-07	3.84387999999999e-07	6.95399999999999e-07
-0.2	-3.0928e-08	6.25559999999999e-08	1.22986e-07	2.3017e-07	4.33664e-07	7.89799999999999e-07
-0.195	-3.5255e-08	7.10589999999999e-08	1.38154e-07	2.60404e-07	4.88134e-07	8.97999999999999e-07
-0.19	-4.0465e-08	8.0634e-08	1.55056e-07	2.9392e-07	5.46332e-07	1.0122e-06
-0.185	-4.6232e-08	9.07859999999999e-08	1.75268e-07	3.29672e-07	6.13904e-07	1.137e-06
-0.18	-5.2438e-08	1.02488e-07	1.9809e-07	3.70388e-07	6.9148e-07	1.2818e-06
-0.175	-5.9634e-08	1.16453e-07	2.2254e-07	4.17394e-07	7.75609999999999e-07	1.437e-06
-0.17	-6.763e-08	1.31757e-07	2.49296e-07	4.69422e-07	8.68233999999999e-07	1.6016e-06
-0.165	-7.64689999999999e-08	1.48781e-07	2.79912e-07	5.27104e-07	9.73669999999999e-07	1.7886e-06
-0.16	-8.65829999999999e-08	1.68466e-07	3.15074e-07	5.93056e-07	1.091528e-06	1.9992e-06
-0.155	-9.78039999999999e-08	1.90322e-07	3.55596e-07	6.67792e-07	1.222346e-06	2.2368e-06
-0.15	-1.105921e-07	2.14661e-07	4.02438e-07	7.50032e-07	1.37169e-06	2.5172e-06
-0.145	-1.244549e-07	2.41994e-07	4.56222e-07	8.40483999999999e-07	1.542772e-06	2.8304e-06
-0.14	-1.192076e-07	2.73621e-07	5.16202e-07	9.44099999999999e-07	1.735274e-06	3.165e-06
-0.135	-7.37398999999999e-08	3.10513e-07	5.81462e-07	1.063104e-06	1.948946e-06	3.5464e-06
-0.13	-3.41509999999999e-09	3.51446e-07	6.5394e-07	1.196172e-06	2.187544e-06	3.973e-06
-0.125	7.60660999999999e-08	3.9636e-07	7.36487999999999e-07	1.345672e-06	2.4536e-06	4.4334e-06
-0.12	1.655579e-07	4.47984e-07	8.31333999999999e-07	1.516522e-06	2.7478e-06	4.9474e-06
-0.115	2.466846e-07	5.07514e-07	9.37917999999999e-07	1.711406e-06	3.0844e-06	5.5372e-06
-0.11	2.99520900000001e-07	5.73922000000001e-07	1.05647e-06	1.929696e-06	3.46720000000001e-06	6.20180000000001e-06
-0.105	3.39603100000001e-07	6.47992000000001e-07	1.193816e-06	2.172602e-06	3.89180000000001e-06	6.94440000000001e-06
-0.1	3.85588e-07	7.32138000000001e-07	1.351596e-06	2.444524e-06	4.37240000000001e-06	7.78920000000001e-06
-0.095	4.38808e-07	8.29384000000001e-07	1.52594e-06	2.75497e-06	4.91560000000001e-06	8.74680000000001e-06
-0.09	4.98403e-07	9.40586000000001e-07	1.723042e-06	3.10562e-06	5.5148e-06	9.80580000000001e-06
-0.085	5.64181999999999e-07	1.064596e-06	1.95098e-06	3.4944e-06	6.18639999999999e-06	1.09766e-05
-0.08	6.38372999999999e-07	1.20471e-06	2.206808e-06	3.9334e-06	6.95599999999999e-06	1.22988e-05
-0.075	7.23029999999999e-07	1.365044e-06	2.490676e-06	4.4378e-06	7.82359999999999e-06	1.37668e-05
-0.07	8.18845999999999e-07	1.544982e-06	2.809582e-06	5.0048e-06	8.79479999999999e-06	1.5239e-05
-0.0649999999999999	9.27699999999999e-07	1.747488e-06	3.171508e-06	5.6432e-06	9.91059999999999e-06	1.69414e-05
-0.0599999999999999	1.053142e-06	1.97859e-06	3.58311e-06	6.374e-06	1.11802e-05	1.92298e-05
-0.0549999999999999	1.196466e-06	2.242556e-06	4.0504e-06	7.19579999999999e-06	1.25858e-05	2.1796e-05
-0.0499999999999999	1.358286e-06	2.54164000000001e-06	4.57800000000001e-06	8.11280000000002e-06	1.41696e-05	2.44960000000001e-05
-0.0449999999999999	1.54099200000001e-06	2.88153800000001e-06	5.18140000000002e-06	9.15280000000004e-06	1.59844000000001e-05	2.77090000000001e-05
-0.0399999999999999	1.74837000000001e-06	3.27321800000001e-06	5.87920000000002e-06	1.03366e-05	1.79810000000001e-05	3.11608000000001e-05
-0.035	1.98611000000001e-06	3.71546400000001e-06	6.66100000000002e-06	1.16728e-05	2.01742000000001e-05	3.47144000000001e-05
-0.03	2.25553400000001e-06	4.20683200000001e-06	7.52900000000002e-06	1.31802e-05	2.26984000000001e-05	3.90330000000001e-05
-0.025	2.557458e-06	4.7668e-06	8.52000000000001e-06	1.48998e-05	2.55858e-05	4.403e-05
-0.02	2.904174e-06	5.4046e-06	9.64939999999999e-06	1.68392e-05	2.88692e-05	4.9496e-05
-0.015	3.297534e-06	6.1156e-06	1.09232e-05	1.89606e-05	3.25844e-05	5.5767e-05
-0.01	3.741238e-06	6.92999999999999e-06	1.237e-05	2.1342e-05	3.67192e-05	6.27969999999999e-05
-0.005	4.247438e-06	7.87439999999999e-06	1.39972e-05	2.40752e-05	4.14e-05	7.04669999999999e-05
-0	4.8212e-06	8.94399999999999e-06	1.58426e-05	2.72014e-05	4.6759e-05	7.91579999999999e-05
0.005	5.4704e-06	1.01448e-05	1.79448e-05	3.07954e-05	5.2756e-05	8.90379999999999e-05
0.01	6.21039999999999e-06	1.1514e-05	2.02978e-05	3.48968e-05	5.95279999999999e-05	0.000100147
0.015	7.05239999999999e-06	1.30616e-05	2.29412e-05	3.95072e-05	6.7243e-05	0.000112676
0.02	8.00699999999999e-06	1.47846e-05	2.59964e-05	4.4739e-05	7.58599999999999e-05	0.000126775
0.025	9.09239999999999e-06	1.67396e-05	2.95054e-05	5.0691e-05	8.54549999999999e-05	0.000142573
0.03	1.0339e-05	1.89788e-05	3.34158e-05	5.7366e-05	9.62909999999999e-05	0.000160362
0.035	1.17552e-05	2.15068e-05	3.78554e-05	6.48649999999999e-05	0.000108583	0.000180509
0.04	1.33478e-05	2.43778e-05	4.302e-05	7.33739999999999e-05	0.00012248	0.000203029
0.045	1.51504e-05	2.76752e-05	4.8741e-05	8.29469999999999e-05	0.00013816	0.0002281
0.05	1.72024e-05	3.1456e-05	5.5118e-05	9.37289999999999e-05	0.000155898	0.000256503
0.055	1.94998e-05	3.57416e-05	6.25539999999999e-05	0.000106046	0.00017586	0.000288665
0.0600000000000001	2.20944e-05	4.06206e-05	7.09019999999999e-05	0.000119953	0.000198061	0.000324377
0.0650000000000001	2.51256e-05	4.6146e-05	8.00949999999999e-05	0.00013553	0.000222983	0.000364225
0.0700000000000001	2.85652e-05	5.2298e-05	9.06289999999999e-05	0.000153094	0.000251454	0.000409054
0.0750000000000001	3.24020000000001e-05	5.92270000000001e-05	0.000102726	0.000172803	0.000283495000000001	0.000459140000000001
0.0800000000000001	3.68260000000002e-05	6.71840000000003e-05	0.000116416000000001	0.000195060000000001	0.000319308000000001	0.000515460000000002
0.0850000000000001	4.18990000000002e-05	7.62530000000003e-05	0.000131931	0.000220152000000001	0.000359746000000001	0.000579300000000002
0.09	4.75730000000002e-05	8.64300000000003e-05	0.000149405	0.000248210000000001	0.000405135000000001	0.000651000000000002
0.095	5.39970000000001e-05	9.79620000000003e-05	0.000169072	0.000280237000000001	0.000456180000000001	0.000730700000000002
0.1	6.1261e-05	0.000111001	0.000191178	0.000316278	0.00051306	0.000818620000000001
0.105	6.9425e-05	0.00012566	0.000215967	0.000356479	0.000576379999999999	0.000917339999999999
0.11	7.87969999999999e-05	0.000142324	0.000243798	0.000402496	0.000648219999999999	0.00102858
0.115	8.94819999999999e-05	0.000161416	0.000275291	0.00045488	0.000729379999999999	0.00115356
0.12	0.000101362	0.000182998	0.000311215	0.00051354	0.000819619999999999	0.00129474
0.125	0.000114878	0.000207348	0.000352196	0.0005799	0.000921579999999999	0.00145372
0.13	0.000130378	0.000234809	0.000398113	0.0006544	0.0010373	0.00163018
0.135	0.000147687	0.000265808	0.00044932	0.000737039999999999	0.00116674	0.001824
0.14	0.000167239	0.000300918	0.00050748	0.000829539999999999	0.00131136	0.0020399
0.145	0.000189725	0.000340429	0.00057356	0.000933319999999999	0.00147332	0.00228342
0.15	0.000215072	0.000384843	0.000646819999999999	0.00104976	0.00165434	0.00255544
0.155	0.000243421	0.000434973	0.000729139999999999	0.00118062	0.00185562	0.00285958
0.16	0.000275418	0.0004913	0.000823859999999999	0.00132758	0.0020793	0.00320386
0.165	0.000311872	0.00055466	0.000929759999999999	0.00149362	0.00233142	0.0035904
0.17	0.000353126	0.0006266	0.001047	0.0016809	0.00261646	0.0040146
0.175	0.000399225	0.000707879999999999	0.0011806	0.00189008	0.00293544	0.0044834
0.18	0.000451178	0.000799499999999999	0.0013313	0.00212234	0.00329182	0.0050048
0.185	0.00051032	0.000903459999999999	0.00149874	0.00238304	0.00368916	0.0055776
0.19	0.00057672	0.00102002	0.00168662	0.00267664	0.0041288	0.00620779999999999
0.195	0.000650899999999999	0.00115012	0.0018967	0.00300468	0.004618	0.00690639999999999
0.2	0.000734300000000001	0.00129752	0.00212988	0.00337154000000001	0.00516200000000001	0.00767980000000001
0.205	0.000828260000000004	0.00146398000000001	0.00239398000000001	0.00378424000000002	0.00576460000000002	0.00853020000000004
0.21	0.000934260000000004	0.00164902000000001	0.00269536000000001	0.00424400000000002	0.00643060000000002	0.00946320000000004
0.215	0.00105312	0.00185440000000001	0.00302832000000001	0.00474720000000002	0.00715760000000002	0.0104784
0.22	0.00118784	0.00208582000000001	0.00339990000000001	0.00530520000000002	0.00796140000000002	0.011592
0.225	0.00134064	0.00234698	0.0038234	0.00593140000000001	0.00885460000000001	0.0128074
0.23	0.00151208	0.00264206	0.004295	0.00662719999999999	0.00983079999999999	0.014133
0.235	0.00170384	0.00297348	0.0048122	0.00739219999999999	0.0108972	0.0155854
0.24	0.00191926	0.0033443	0.0053936	0.00824179999999999	0.0120766	0.0171634
0.245	0.00215896	0.00376044	0.0060454	0.00917879999999999	0.0133636	0.0188688
0.25	0.00242614	0.00422606	0.00675779999999999	0.0102002	0.0147636	0.02071
0.255	0.00272802	0.0047428	0.00753859999999999	0.0113208	0.0162914	0.0226888
0.26	0.00306858	0.00531619999999999	0.00840459999999999	0.0125476	0.0179446	0.0248106
0.265	0.00345092	0.00595359999999999	0.00935779999999999	0.0138766	0.019731	0.0270816
0.27	0.0038792	0.00665739999999999	0.010399	0.015326	0.0216494	0.0294998
0.275	0.0043564	0.00743399999999999	0.0115442	0.0169138	0.0236982	0.032082
0.28	0.0048858	0.00829119999999999	0.0128034	0.0186312	0.025909	0.03483
0.285	0.005472	0.00923699999999999	0.0141804	0.020483	0.0282812	0.037724
0.29	0.00612079999999999	0.0102814	0.0156828	0.0224908	0.0307918	0.040782
0.295	0.00683439999999999	0.0114236	0.0173102	0.0246582	0.033488	0.044008
0.3	0.00762199999999999	0.0126696	0.0190674	0.0269726	0.036378	0.047382
0.305	0.00849499999999999	0.0140378	0.0209638	0.0294212	0.039394	0.050908
0.31	0.00945679999999999	0.0155302	0.0229984	0.0320382	0.042554	0.0545939999999999
0.315	0.0105088	0.0171384	0.0251654	0.03483	0.0459079999999999	0.0584319999999999
0.32	0.0116582	0.0188846	0.0274996	0.037756	0.0494059999999999	0.062418
0.325	0.0129188	0.0207752	0.0300122000000001	0.0408320000000001	0.0530120000000001	0.0665380000000001
0.33	0.0142894000000001	0.0227914000000001	0.0326848000000001	0.0440920000000002	0.0567860000000002	0.0707440000000003
0.335	0.0157624000000001	0.0249520000000001	0.0355400000000001	0.0475080000000002	0.0607120000000002	0.0750480000000003
0.34	0.0173524000000001	0.0272898000000001	0.0385660000000001	0.0510580000000002	0.0647400000000002	0.0794580000000003
0.345	0.0190782000000001	0.0297802000000001	0.0416980000000001	0.0547560000000002	0.0689120000000002	0.0839500000000003
0.35	0.0209346	0.0324068	0.044966	0.0586140000000001	0.0732360000000001	0.0885220000000001
0.355	0.022923	0.035206	0.048422	0.06262	0.0776259999999999	0.0931799999999999
0.36	0.0250492	0.038158	0.051994	0.0667339999999999	0.0820479999999999	0.0979479999999999
0.365	0.0273126	0.041224	0.0556819999999999	0.070948	0.0865659999999999	0.102748
0.37	0.0297116	0.044434	0.0595539999999999	0.0752579999999999	0.0911939999999999	0.107486
0.375	0.032218	0.047806	0.0635399999999999	0.0796459999999999	0.0958539999999999	0.112246
0.38	0.034858	0.051334	0.0675819999999999	0.0840799999999999	0.100536	0.117082
0.385	0.037666	0.054994	0.0717559999999999	0.0885519999999999	0.10529	0.121722
0.39	0.0406	0.0587399999999999	0.07605	0.0931199999999999	0.110086	0.12623
0.395	0.043628	0.0625979999999999	0.0804159999999999	0.0977859999999999	0.114858	0.1309
0.4	0.04678	0.066578	0.0848539999999999	0.102452	0.119462	0.13554
0.405	0.05003	0.0706219999999999	0.0893359999999999	0.107108	0.123908	0.140142
0.41	0.053326	0.0747499999999999	0.0938559999999999	0.11183	0.128418	0.144976
0.415	0.056706	0.0789739999999999	0.0983819999999999	0.116528	0.13306	0.149918
0.42	0.060192	0.083222	0.102862	0.120976	0.137704	0.15462
0.425	0.0637360000000001	0.0874420000000001	0.107332	0.125276	0.142344	0.15906
0.43	0.0672920000000001	0.0916500000000001	0.111858	0.129734	0.147062	0.16334
0.435	0.0708960000000001	0.0959280000000001	0.1164	0.134258	0.1517	0.16748
0.44	0.0745520000000001	0.10032	0.120796	0.13878	0.1561	0.17152
0.445	0.078176	0.104706	0.12508	0.143432	0.16034	0.17556
0.45	0.0817659999999999	0.10903	0.12946	0.147996	0.16454	0.17966
0.455	0.0853359999999999	0.11336	0.133816	0.1523	0.16872	0.1837
0.46	0.0888099999999999	0.117436	0.138082	0.15648	0.17282	0.18752
0.465	0.0921699999999999	0.121194	0.142434	0.16052	0.17674	0.19114
0.47	0.0954919999999999	0.125078	0.146762	0.16452	0.18058	0.19474
0.475	0.0987639999999999	0.12909	0.15088	0.1686	0.18442	0.19824
0.48	0.101908	0.133	0.1548	0.17246	0.18796	0.20152
0.485	0.104962	0.13707	0.15854	0.17604	0.19134	0.20488
0.49	0.107776	0.141284	0.16226	0.17968	0.1948	0.2083
0.495	0.110186	0.14514	0.16604	0.18326	0.198	0.2113
0.5	0.112524	0.1487	0.16968	0.18656	0.20108	0.21414
0.505	0.114962	0.15218	0.17312	0.18992	0.20438	0.21714
0.51	0.117192	0.15552	0.17652	0.19342	0.20758	0.21992
0.515	0.119292	0.15878	0.17992	0.19666	0.21044	0.22246
0.52	0.121508	0.16188	0.18304	0.1996	0.21328	0.22508
0.525	0.1234	0.16484	0.18594	0.20258	0.21612	0.22776
0.53	0.12474	0.16782	0.18902	0.20552	0.21874	0.23032
0.535	0.1259	0.17068	0.1921	0.20814	0.22122	0.23276
0.54	0.12686	0.17332	0.19484	0.21056	0.22376	0.23514
0.545	0.12752	0.17592	0.19744	0.21308	0.22622	0.23744
0.55	0.12804	0.17852	0.20018	0.21566	0.22838	0.2395
0.555	0.12834	0.18096	0.20282	0.21806	0.23052	0.24142
0.56	0.1284	0.18314	0.20512	0.2204	0.2327	0.24334
0.565	0.12832	0.18506	0.20732	0.2227	0.23472	0.24506
0.57	0.12792	0.18692	0.20964	0.2248	0.23668	0.24674
0.575	0.12712	0.18868	0.21178	0.22676	0.23864	0.24846
0.58	0.12618	0.19026	0.21366	0.2287	0.24052	0.25006
0.585	0.12514	0.1918	0.21562	0.23064	0.2423	0.25176
0.59	0.12388	0.19326	0.21752	0.23254	0.24394	0.2535
0.595	0.12244	0.19462	0.2193	0.23438	0.24564	0.25498
0.6	0.12088	0.19582	0.22106	0.23614	0.24748	0.2565
0.605	0.11924	0.19674	0.22268	0.23776	0.249	0.2581
0.61	0.11736	0.19754	0.22422	0.23918	0.2503	0.25926
0.615	0.11526	0.19838	0.22574	0.24054	0.25182	0.26032
0.62	0.1132	0.19892	0.22696	0.2419	0.25312	0.26162
0.625	0.11104	0.19916	0.22798	0.24324	0.25408	0.26274
0.63	0.10852	0.19928	0.22894	0.24438	0.25502	0.26342
0.635	0.10592	0.19922	0.22986	0.24536	0.256	0.2643
0.64	0.1034	0.19896	0.23076	0.24642	0.25692	0.26546
0.645	0.10074	0.1986	0.2316	0.2475	0.25784	0.26628
0.65	0.0980999999999999	0.19826	0.23254	0.24844	0.25894	0.26696
0.655	0.0956799999999999	0.19788	0.23358	0.24946	0.26008	0.26792
0.66	0.0931599999999999	0.19712	0.23438	0.25062	0.26098	0.26884
0.665	0.0904999999999999	0.19606	0.23498	0.25156	0.26188	0.26952
0.67	0.08796	0.19508	0.23564	0.25232	0.26284	0.27034
0.675	0.08546	0.19382	0.23614	0.253	0.26354	0.2711
0.68	0.0828999999999999	0.1922	0.23634	0.2536	0.26422	0.27166
0.685	0.0804000000000001	0.19062	0.2364	0.25418	0.26488	0.27214
0.69	0.07798	0.18896	0.2366	0.25474	0.26534	0.27262
0.695	0.0754999999999999	0.18696	0.2368	0.25518	0.265780000000001	0.273120000000001
0.7	0.07304	0.18488	0.2368	0.25556	0.266200000000001	0.273600000000001
0.705	0.07072	0.18274	0.23684	0.256	0.266600000000001	0.27412
0.71	0.0685399999999999	0.18038	0.23686	0.2564	0.26722	0.27462
0.715	0.06634	0.17772	0.2364	0.2565	0.26756	0.27466
0.72	0.0641400000000002	0.1748	0.23576	0.25656	0.26764	0.274560000000001
0.725	0.0620200000000001	0.17182	0.235060000000001	0.25682	0.2679	0.27478
0.73	0.0599200000000001	0.16878	0.234280000000001	0.25704	0.26808	0.27496
0.735	0.0579000000000001	0.16564	0.23362	0.25698	0.26804	0.275040000000001
0.74	0.0560200000000001	0.16258	0.23306	0.25702	0.268160000000001	0.27546
0.745	0.05422	0.15962	0.23254	0.2573	0.26858	0.27594
0.75	0.05246	0.1564	0.23186	0.2574	0.26904	0.27612
0.755	0.0507399999999999	0.15296	0.23086	0.2573	0.26938	0.27628
0.76	0.0490199999999999	0.14958	0.22968	0.25716	0.26958	0.26414
0.765	0.0473399999999998	0.14616	0.22846	0.257	0.26976	0.226
0.77	0.0457599999999999	0.14264	0.22676	0.25672	0.26972	0.17248
0.775	0.04428	0.13924	0.2249	0.25648	0.26942	0.11726
0.78	0.0428400000000001	0.13596	0.22338	0.25618	0.26488	0.0619799999999999
0.785	0.04142	0.13262	0.22166	0.25582	0.24286	0.0189399999999999
0.79	0.04016	0.1292	0.21946	0.2555	0.19824	0.00182000000000001
0.795	0.0390399999999999	0.12574	0.21734	0.25498	0.14434	2.000000000002e-05
0.8	0.0377799999999999	0.1222	0.21524	0.25396	0.0905199999999997	-8.00000000000799e-05
0.805	0.0364599999999999	0.1187	0.21284	0.25296	0.0410399999999998	-0.00014000000000014
0.81	0.03536	0.11526	0.21046	0.2438	0.00917999999999987	-0.00016000000000016
0.815	0.0343	0.11192	0.20818	0.2134	-2.000000000002e-05	-0.0001000000000001
0.82	0.0331400000000001	0.10878	0.2057	0.1665	6.00000000000606e-05	2.00000000000209e-05
0.825	0.0321400000000001	0.10568	0.20312	0.11614	4.00000000000406e-05	6.00000000000608e-05
0.83	0.03122	0.10264	0.20044	0.06596	6.70850094225406e-19	6.00000000000608e-05
0.835	0.03018	0.0998200000000003	0.1974	0.02424	2.00000000000202e-05	0.000120000000000121
0.84	0.02922	0.0969800000000005	0.19416	0.00383999999999999	4.00000000000402e-05	0.000100000000000101
0.845	0.02836	0.0939800000000005	0.19088	-2.00000000000198e-05	2.00000000000195e-05	4.40457132572236e-19
0.85	0.0274399999999999	0.0912000000000004	0.18758	-4.00000000000397e-05	-4.00000000000404e-05	4.40457132572236e-19
0.855	0.02666	0.0885600000000003	0.1842	-2.00000000000198e-05	-6.00000000000604e-05	4.00000000000404e-05
0.86	0.02604	0.0858	0.18086	-2.000000000002e-05	3.3881317890172e-21	2.000000000002e-05
0.865	0.0252600000000001	0.0832599999999999	0.17372	-4.000000000004e-05	2.000000000002e-05	0
0.87	0.0244400000000001	0.0809999999999998	0.15452	0	-3.3881317890172e-21	-4.000000000004e-05
0.875	0.0237400000000001	0.0786399999999996	0.1229	4.000000000004e-05	4.000000000004e-05	-6.000000000006e-05
0.88	0.0230400000000001	0.0762399999999997	0.08734	4.000000000004e-05	0.00012000000000012	0
0.885	0.02234	0.0739399999999998	0.0524600000000001	4.000000000004e-05	0.00012000000000012	2.000000000002e-05
0.89	0.0218199999999999	0.0718199999999997	0.0221800000000002	4.000000000004e-05	6.000000000006e-05	2.000000000002e-05
