|Vds|	Gm_|Vgs|=0.15V	Gm_|Vgs|=0.3V	Gm_|Vgs|=0.45V	Gm_|Vgs|=0.6V	Gm_|Vgs|=0.75V	Gm_|Vgs|=0.9V
0.9	0.0002288	0.00320000000000003	0.0107200000000002	0.0151999999999999	0.0147999999999995	0.0268000000000004
0.895	0.000226633333333333	0.00311000000000002	0.0102533333333334	0.0145333333333332	0.0152999999999998	0.0241666666666669
0.89	0.00022244	0.00305000000000001	0.00997000000000004	0.0143199999999999	0.0160399999999999	0.0219400000000002
0.885	0.00021792	0.00298	0.009754	0.0141199999999999	0.0164400000000001	0.0203600000000001
0.88	0.0002131	0.002936	0.00959799999999996	0.01408	0.01668	0.01926
0.875	0.00020998	0.002914	0.00956799999999996	0.01414	0.01676	0.01898
0.87	0.0002073	0.002882	0.00953799999999999	0.01418	0.01672	0.01912
0.865	0.00020392	0.00287599999999999	0.00946999999999997	0.01418	0.0166799999999999	0.0192399999999999
0.86	0.0002018	0.00288	0.00941799999999999	0.0141	0.0167399999999999	0.01924
0.855	0.00020106	0.002846	0.00938000000000004	0.01408	0.01688	0.01924
0.85	0.00019892	0.002816	0.00940000000000003	0.01414	0.0170000000000001	0.0193
0.845	0.00019542	0.00280600000000001	0.009448	0.01414	0.0170600000000001	0.0193600000000001
0.84	0.000193100000000001	0.00276800000000001	0.00943600000000003	0.0142000000000001	0.0171000000000001	0.0194600000000001
0.835	0.000191020000000001	0.00273800000000001	0.00940400000000003	0.0143400000000001	0.0171400000000001	0.0196
0.83	0.00018744	0.002756	0.009372	0.01434	0.0171000000000001	0.0197000000000001
0.825	0.0001837	0.002754	0.00933400000000002	0.01424	0.017	0.0197000000000001
0.82	0.00018102	0.00273	0.00931800000000005	0.01418	0.0169599999999999	0.0197
0.815	0.0001782	0.00273	0.00931400000000003	0.01412	0.0169799999999999	0.0197399999999999
0.81	0.0001749	0.002708	0.009328	0.01406	0.0170799999999999	0.01992
0.805	0.00017198	0.00265	0.00932799999999997	0.01408	0.0172399999999999	0.0201599999999999
0.8	0.00016982	0.002622	0.00926599999999997	0.0141	0.01742	0.0201999999999999
0.795	0.00016796	0.002604	0.00921199999999998	0.01404	0.0175800000000001	0.02016
0.79	0.00016618	0.002562	0.00922399999999998	0.014	0.0176000000000001	0.0202199999999999
0.785	0.00016522	0.002542	0.00922799999999999	0.01404	0.01752	0.0201999999999999
0.78	0.00016442	0.002538	0.00922399999999999	0.01408	0.0175	0.02006
0.775	0.00016226	0.00252	0.00926399999999998	0.01412	0.01748	0.0201999999999999
0.77	0.00015984	0.002506	0.00927599999999998	0.0142	0.0174399999999999	0.0204999999999999
0.765	0.0001583	0.0025	0.00923599999999999	0.01426	0.0175199999999999	0.0206399999999999
0.76	0.0001561	0.00249	0.009218	0.01422	0.01758	0.02076
0.755	0.00015316	0.002478	0.00921200000000001	0.01408	0.0174800000000001	0.0209
0.75	0.00015068	0.00246	0.00915200000000002	0.01408	0.0174600000000001	0.02096
0.745	0.00014892	0.00244	0.00908799999999999	0.01422	0.0175600000000001	0.02096
0.74	0.00014674	0.002424	0.00905999999999998	0.0143	0.01756	0.0210000000000001
0.735	0.0001441	0.002404	0.009028	0.0143600000000001	0.01756	0.0211000000000001
0.73	0.00014224	0.00238	0.008992	0.0144600000000001	0.0177	0.0212600000000001
0.725	0.00014042	0.002364	0.008978	0.01448	0.01784	0.02138
0.72	0.00013786	0.002348	0.00899600000000001	0.01436	0.0178999999999999	0.0215000000000001
0.715	0.00013582	0.002322	0.00899	0.01426	0.0179799999999999	0.0217200000000001
0.71	0.00013462	0.0022978	0.00896799999999999	0.01426	0.0181	0.0219
0.705	0.00013292	0.0022782	0.00898400000000002	0.01432	0.01818	0.022
0.7	0.00013068	0.0022596	0.00899800000000003	0.01442	0.0181800000000001	0.02212
0.695	0.00012852	0.00224360000000001	0.00899200000000003	0.0145	0.0181800000000002	0.02224
0.69	0.00012642	0.00223100000000001	0.00900800000000003	0.0145	0.0182200000000002	0.02228
0.685	0.00012452	0.002219	0.00901800000000002	0.01448	0.0181600000000001	0.0224
0.68	0.0001231	0.0022008	0.00896999999999998	0.01444	0.01808	0.02266
0.675	0.00012194	0.0021776	0.00891999999999998	0.01438	0.0181599999999999	0.02294
0.67	0.00012076	0.0021588	0.00889399999999999	0.01442	0.0182799999999999	0.02324
0.665	0.00011938	0.0021386	0.00886399999999999	0.0145	0.0183599999999998	0.0235400000000001
0.66	0.0001174	0.0021194	0.00883799999999999	0.01448	0.0184999999999999	0.0237400000000001
0.655	0.00011498	0.0021136	0.00882999999999999	0.01444	0.0187	0.02388
0.65	0.0001129	0.0021032	0.00883399999999999	0.0144599999999999	0.01874	0.0240399999999999
0.645	0.00011148	0.0020778	0.00883799999999999	0.01448	0.01866	0.0241799999999999
0.64	0.00011022	0.002057	0.00882599999999999	0.0145	0.01864	0.0243399999999999
0.635	0.00010906	0.0020388	0.008798	0.01454	0.01868	0.0245199999999999
0.63	0.0001079	0.0020204	0.008782	0.0146	0.0188	0.02474
0.625	0.00010662	0.0020104	0.00877600000000001	0.01464	0.0189800000000001	0.0251000000000001
0.62	0.00010522	0.001999	0.00875800000000002	0.0146	0.0191400000000001	0.0254400000000001
0.615	0.0001031	0.0019822	0.00873800000000002	0.01456	0.0192200000000001	0.02568
0.61	0.00010098	0.0019712	0.00873800000000002	0.01464	0.0192800000000001	0.02598
0.605	9.96200000000001e-05	0.0019588	0.00875200000000002	0.01472	0.01932	0.02628
0.6	9.84399999999999e-05	0.001937	0.00874599999999999	0.01468	0.0193799999999999	0.0265199999999999
0.595	9.70999999999999e-05	0.0019234	0.00874599999999998	0.01472	0.01946	0.0268999999999999
0.59	9.59999999999999e-05	0.0019194	0.00876799999999997	0.0148	0.01952	0.02736
0.585	9.46599999999999e-05	0.0019034	0.00872599999999997	0.01474	0.01964	0.02768
0.58	9.31999999999999e-05	0.0018722	0.00866199999999998	0.01472	0.0198	0.028
0.575	9.22199999999999e-05	0.001845	0.00864199999999999	0.01482	0.01992	0.02836
0.57	9.07800000000001e-05	0.0018276	0.00860600000000003	0.0148800000000001	0.01998	0.0286800000000001
0.565	8.95000000000001e-05	0.0018058	0.00856600000000003	0.0149200000000001	0.02006	0.02908
0.56	8.89200000000001e-05	0.001784	0.00858000000000002	0.0150000000000001	0.02016	0.02964
0.555	8.76600000000001e-05	0.0017758	0.00861200000000002	0.0150200000000001	0.02032	0.03026
0.55	8.574e-05	0.0017668	0.00859800000000001	0.01502	0.02054	0.0307800000000001
0.545	8.40999999999999e-05	0.0017456	0.00855999999999999	0.01504	0.0207199999999999	0.0312400000000001
0.54	8.25599999999999e-05	0.0017322	0.00853799999999999	0.015	0.0208799999999999	0.0318200000000001
0.535	8.10999999999999e-05	0.001725	0.00853799999999999	0.015	0.021	0.0324200000000001
0.53	7.968e-05	0.0017082	0.00854799999999999	0.01506	0.02108	0.0328400000000001
0.525	7.866e-05	0.0016926	0.00854999999999999	0.015	0.02112	0.03336
0.52	7.82799999999999e-05	0.0016894	0.00854199999999999	0.01494	0.0212	0.0341399999999999
0.515	7.75999999999999e-05	0.0016854	0.008542	0.01502	0.02144	0.0348199999999999
0.51	7.64999999999999e-05	0.0016632	0.008538	0.0150599999999999	0.0216999999999999	0.03544
0.505	7.544e-05	0.0016406	0.00848600000000001	0.0150799999999999	0.0218199999999999	0.03624
0.5	7.41600000000001e-05	0.001627	0.00845400000000002	0.0152	0.02198	0.037
0.495	7.26800000000001e-05	0.0016058	0.00846000000000002	0.0153200000000001	0.0222400000000001	0.0376800000000001
0.49	7.16400000000001e-05	0.0015774	0.008436	0.0153800000000001	0.0223800000000001	0.0385
0.485	7.06600000000001e-05	0.0015624	0.00840799999999999	0.0154200000000001	0.0225000000000001	0.0393600000000001
0.48	6.942e-05	0.001557	0.00839	0.0154600000000001	0.02272	0.0402000000000001
0.475	6.88399999999999e-05	0.0015462	0.00836399999999999	0.0155400000000001	0.0229399999999999	0.0411600000000001
0.47	6.89999999999999e-05	0.0015322	0.008362	0.01564	0.0231999999999998	0.04216
0.465	6.814e-05	0.0015172	0.00838400000000001	0.01572	0.0235199999999998	0.04312
0.46	6.674e-05	0.0015068	0.00837800000000001	0.01578	0.0237999999999999	0.0442
0.455	6.648e-05	0.0014978	0.00836999999999999	0.01578	0.0240400000000001	0.0453799999999999
0.45	6.554e-05	0.0014848	0.00837999999999999	0.01576	0.0243200000000001	0.0465399999999999
0.445	6.324e-05	0.0014738	0.008378	0.0157199999999999	0.0246	0.04774
0.44	6.194e-05	0.0014668	0.00834600000000001	0.01566	0.0248800000000001	0.0489200000000001
0.435	6.124e-05	0.0014542	0.00831400000000001	0.01568	0.0252000000000001	0.05006
0.43	5.98800000000001e-05	0.0014342	0.00831200000000001	0.01582	0.02556	0.05134
0.425	5.88400000000001e-05	0.0014144	0.00830600000000001	0.01598	0.02602	0.0527200000000001
0.42	5.82200000000001e-05	0.0013958	0.00827	0.01608	0.0265000000000001	0.05408
0.415	5.73e-05	0.0013774	0.00823799999999999	0.0162	0.0268600000000001	0.05548
0.41	5.65e-05	0.001362	0.00823999999999999	0.0162999999999999	0.0272200000000001	0.0569200000000001
0.405	5.602e-05	0.0013498	0.008234	0.01632	0.0277200000000001	0.0584000000000001
0.4	5.54599999999999e-05	0.0013358	0.008224	0.0164	0.02816	0.0598599999999999
0.395	5.49199999999999e-05	0.0013232	0.00824599999999999	0.01658	0.02852	0.0612399999999999
0.39	5.40999999999999e-05	0.0013164	0.00824799999999999	0.01668	0.02906	0.0627399999999998
0.385	5.324e-05	0.0013068	0.00822399999999998	0.0167600000000001	0.0297399999999999	0.0643399999999998
0.38	5.25e-05	0.0012954	0.00821199999999998	0.0169000000000001	0.0303	0.0657799999999999
0.375	5.13199999999999e-05	0.0012902	0.00818799999999998	0.01694	0.03086	0.06724
0.37	5.018e-05	0.0012808	0.00815999999999999	0.01696	0.03164	0.06894
0.365	4.962e-05	0.0012648	0.008174	0.0170999999999999	0.03246	0.07064
0.36	4.89e-05	0.001252	0.00820799999999999	0.0172599999999999	0.03324	0.0722799999999999
0.355	4.77e-05	0.0012378	0.008232	0.0173399999999999	0.0340799999999999	0.0740199999999999
0.35	4.68400000000001e-05	0.0012218	0.00825600000000002	0.01742	0.03488	0.0756800000000001
0.345	4.65400000000002e-05	0.00121	0.00826000000000003	0.01758	0.0356200000000001	0.0772000000000003
0.34	4.62200000000002e-05	0.001199	0.00823400000000003	0.01778	0.0364800000000001	0.0788000000000003
0.335	4.51400000000001e-05	0.0011872	0.00818400000000003	0.01792	0.0374000000000001	0.0804000000000003
0.33	4.39400000000001e-05	0.0011762	0.00813800000000003	0.0181200000000001	0.0383600000000001	0.0819600000000003
0.325	4.344e-05	0.0011678	0.00812400000000001	0.0184200000000001	0.03948	0.0836800000000002
0.32	4.27999999999999e-05	0.0011606	0.00812399999999999	0.01854	0.04058	0.08538
0.315	4.206e-05	0.0011482	0.00813199999999999	0.01862	0.0416	0.08696
0.31	4.206e-05	0.0011326	0.00816	0.0189	0.04274	0.08856
0.305	4.204e-05	0.0011196	0.00819	0.01912	0.044	0.0901799999999998
0.3	4.136e-05	0.001106	0.00819399999999999	0.01924	0.04524	0.0918399999999998
0.295	4.07e-05	0.001092	0.00819599999999999	0.0195	0.04658	0.09344
0.29	4.006e-05	0.001084	0.008226	0.0198	0.04808	0.09496
0.285	3.92099999999999e-05	0.001079	0.00826199999999999	0.02004	0.0496	0.09654
0.28	3.84799999999999e-05	0.001069	0.00825799999999999	0.02036	0.0510799999999999	0.09808
0.275	3.78869999999999e-05	0.0010564	0.00823	0.02072	0.05258	0.0995799999999999
0.27	3.72079999999999e-05	0.0010464	0.008228	0.02108	0.05416	0.10114
0.265	3.6444e-05	0.0010344	0.00822999999999999	0.02154	0.05576	0.10262
0.26	3.5751e-05	0.0010214	0.00821399999999999	0.02196	0.0574	0.10406
0.255	3.5319e-05	0.001012	0.008234	0.0223	0.05908	0.10554
0.25	3.5129e-05	0.0010014	0.00830599999999999	0.02274	0.0607599999999999	0.10694
0.245	3.4747e-05	0.000990399999999999	0.00834599999999998	0.02324	0.0624999999999999	0.10832
0.24	3.4071e-05	0.000982799999999999	0.00835399999999999	0.0237	0.0642799999999999	0.10972
0.235	3.3505e-05	0.0009718	0.00837399999999999	0.02422	0.0659599999999999	0.111
0.23	3.3082e-05	0.0009598	0.00837399999999999	0.02484	0.0677199999999999	0.11226
0.225	3.23060000000001e-05	0.000954400000000002	0.00836600000000001	0.0255400000000001	0.0696600000000001	0.1135
0.22	3.14860000000001e-05	0.000946200000000004	0.00840400000000003	0.0263400000000001	0.0715600000000003	0.11476
0.215	3.11200000000001e-05	0.000931000000000004	0.00846200000000003	0.0271200000000001	0.0734600000000002	0.11602
0.21	3.06880000000001e-05	0.000921000000000003	0.00849200000000003	0.0279400000000001	0.0755000000000003	0.11722
0.205	3.01420000000001e-05	0.000918200000000003	0.00855200000000004	0.0288200000000001	0.0774400000000003	0.11846
0.2	2.9883e-05	0.000909800000000001	0.00864000000000001	0.02964	0.0792600000000002	0.11966
0.195	2.9607e-05	0.000896999999999999	0.00867999999999999	0.0305399999999999	0.08116	0.12074
0.19	2.9101e-05	0.000891399999999999	0.00871599999999999	0.0315599999999999	0.0829999999999999	0.12188
0.185	2.8445e-05	0.000887599999999999	0.00880399999999999	0.03262	0.0847799999999999	0.12312
0.18	2.7774e-05	0.0008762	0.00889399999999999	0.03382	0.0866599999999999	0.1242
0.175	2.7501e-05	0.000864599999999999	0.00896599999999999	0.03514	0.08858	0.1252
0.17	2.7332e-05	0.000858199999999999	0.00905599999999999	0.03634	0.0903599999999999	0.12618
0.165	2.6904e-05	0.000849999999999999	0.009174	0.03758	0.0921199999999999	0.12714
0.16	2.6792e-05	0.0008432	0.00931199999999999	0.03908	0.0939399999999999	0.1281
0.155	2.6816e-05	0.0008424	0.00945799999999999	0.04068	0.0957399999999998	0.12906
0.15	2.6342e-05	0.000841	0.009634	0.0423	0.0974799999999999	0.13002
0.145	2.5966e-05	0.0008376	0.00985999999999999	0.04406	0.0992599999999999	0.13102
0.14	2.5937e-05	0.0008364	0.010084	0.04592	0.10112	0.132
0.135	2.5581e-05	0.000834799999999999	0.010296	0.04759	0.10284	0.13286
0.13	2.5055e-05	0.000830599999999999	0.010544	0.04911	0.1044	0.13366
0.125	2.5013e-05	0.000830999999999999	0.010826	0.0508419999999999	0.10604	0.13446
0.12	2.5044e-05	0.000836399999999999	0.011144	0.0528379999999999	0.10772	0.13526
0.115	2.4801e-05	0.000841199999999999	0.01151	0.0548579999999999	0.10914	0.13594
0.11	2.4799e-05	0.000846599999999999	0.01194	0.057022	0.11058	0.1367
0.105	2.5001e-05	0.0008554	0.012428	0.0594519999999999	0.11224	0.13756
0.1	2.5141e-05	0.000866400000000002	0.012952	0.0618660000000001	0.11376	0.13834
0.095	2.53700000000001e-05	0.000880400000000003	0.0135320000000001	0.0641420000000002	0.11516	0.139120000000001
0.09	2.57450000000001e-05	0.000901200000000003	0.0141880000000001	0.0664560000000002	0.1166	0.139940000000001
0.0850000000000001	2.63180000000001e-05	0.000927800000000003	0.014916	0.0688360000000002	0.117852	0.140660000000001
0.0800000000000001	2.72800000000001e-05	0.000960200000000003	0.01572	0.0711900000000002	0.119012	0.141216000000001
0.0750000000000001	2.8196e-05	0.000998600000000002	0.016606	0.0735300000000001	0.12033	0.141672
0.0700000000000001	2.8973e-05	0.0010432	0.01758	0.0758619999999999	0.121678	0.142156
0.0650000000000001	3.0398e-05	0.0010962	0.01867	0.0782179999999999	0.12306	0.14278
0.0600000000000001	3.2318e-05	0.0011582	0.019874	0.0806279999999999	0.12455	0.14344
0.055	3.4139e-05	0.0012316	0.02118	0.0830419999999999	0.125916	0.144102
0.05	3.6312e-05	0.00131838	0.022594	0.0853479999999999	0.126972	0.14474
0.045	3.9322e-05	0.00142034	0.024146	0.0876739999999999	0.127968	0.145388
0.04	4.2809e-05	0.00154178	0.025846	0.0900199999999999	0.129086	0.14599
0.035	4.6802e-05	0.00168826	0.027662	0.0922479999999999	0.130196	0.146414
0.03	5.1852e-05	0.0018603	0.0296082	0.0944699999999999	0.131244	0.14686
0.025	5.79459999999999e-05	0.00206002	0.0317342	0.0967739999999999	0.132398	0.147526
0.02	6.49171999999999e-05	0.0022916	0.0339914	0.0990279999999999	0.1335348	0.1480768
0.015	7.24433999999999e-05	0.002559123	0.036397735	0.10123666	0.13456638	0.14856508
0.01	7.94263999999999e-05	0.002824649	0.038723605	0.10326598	0.13554394	0.14922404
0.005	8.71323333333333e-05	0.00311318166666666	0.0412123416666666	0.1052833	0.136603233333333	0.149866733333333
0	9.18099999999999e-05	0.00335903	0.04324935	0.1068066	0.1375478	0.1506148
