Vds	Gm_Vgs=0.15V	Gm_Vgs=0.3V	Gm_Vgs=0.45V	Gm_Vgs=0.6V	Gm_Vgs=0.75V	Gm_Vgs=0.9V
0	3.22800000000001e-08	4.00399999999999e-08	6.1e-08	1.1056e-07	2.94920000000001e-07	1.06e-06
0.005	3.28366666666668e-08	3.91799999999999e-08	5.842e-08	1.07793333333333e-07	2.91503333333334e-07	1.03566666666667e-06
0.01	3.2292e-08	3.81579999999999e-08	5.5554e-08	1.04038e-07	2.8235e-07	1.0052e-06
0.015	3.1492e-08	3.7001e-08	5.3038e-08	1.00606e-07	2.7414e-07	9.72764e-07
0.02	3.0266e-08	3.5523e-08	5.0846e-08	9.6618e-08	2.63964e-07	9.34928e-07
0.025	2.8952e-08	3.4264e-08	4.9181e-08	9.317e-08	2.53474e-07	8.95284e-07
0.03	2.7748e-08	3.3032e-08	4.7791e-08	9.0186e-08	2.43332e-07	8.53744e-07
0.035	2.6609e-08	3.1754e-08	4.6618e-08	8.7048e-08	2.3335e-07	8.12496e-07
0.04	2.5891e-08	3.088e-08	4.5508e-08	8.4244e-08	2.24262e-07	7.74574e-07
0.045	2.5614e-08	3.0309e-08	4.4438e-08	8.1882e-08	2.15748e-07	7.40558e-07
0.05	2.5186e-08	2.9715e-08	4.3442e-08	7.9232e-08	2.07034e-07	7.0835e-07
0.055	2.4447e-08	2.9145e-08	4.2556e-08	7.667e-08	1.9903e-07	6.7693e-07
0.06	2.3843e-08	2.8485e-08	4.1884e-08	7.4556e-08	1.91632e-07	6.47428e-07
0.065	2.3468e-08	2.7641e-08	4.0992e-08	7.2204e-08	1.8382e-07	6.20108e-07
0.07	2.2853e-08	2.6914e-08	4.0013e-08	6.9978e-08	1.75988e-07	5.93748e-07
0.075	2.2294e-08	2.6408e-08	3.9124e-08	6.8116e-08	1.69164e-07	5.6808e-07
0.08	2.2394e-08	2.6023e-08	3.8139e-08	6.597e-08	1.63052e-07	5.4415e-07
0.085	2.2586e-08	2.5996e-08	3.7279e-08	6.3876e-08	1.57178e-07	5.2101e-07
0.09	2.2377e-08	2.5852e-08	3.6647e-08	6.2051e-08	1.51768e-07	4.975e-07
0.095	2.2137e-08	2.5281e-08	3.6234e-08	5.9973e-08	1.46918e-07	4.74878e-07
0.1	2.1859e-08	2.4906e-08	3.5878e-08	5.8266e-08	1.42276e-07	4.55132e-07
0.105	2.1518e-08	2.45e-08	3.5141e-08	5.7012e-08	1.37218e-07	4.37196e-07
0.11	2.1409e-08	2.3739e-08	3.4153e-08	5.5238e-08	1.32086e-07	4.19824e-07
0.115	2.148e-08	2.3311e-08	3.3306e-08	5.371e-08	1.27428e-07	4.0277e-07
0.12	2.1494e-08	2.3233e-08	3.2288e-08	5.2884e-08	1.23022e-07	3.86056e-07
0.125	2.138e-08	2.3051e-08	3.125e-08	5.1648e-08	1.1827e-07	3.69928e-07
0.13	2.1121e-08	2.2875e-08	3.0795e-08	5.0366e-08	1.13606e-07	3.5422e-07
0.135	2.0832e-08	2.2715e-08	3.0589e-08	4.9916e-08	1.0947e-07	3.39078e-07
0.14	2.0763e-08	2.2474e-08	3.0344e-08	4.9366e-08	1.05666e-07	3.2465e-07
0.145	2.0938e-08	2.2181e-08	3.0163e-08	4.7834e-08	1.0215e-07	3.11224e-07
0.15	2.1115e-08	2.1767e-08	2.9725e-08	4.67e-08	9.9116e-08	2.98924e-07
0.155	2.102e-08	2.1336e-08	2.9108e-08	4.6285e-08	9.6736e-08	2.8729e-07
0.16	2.0723e-08	2.1248e-08	2.8556e-08	4.5024e-08	9.4268e-08	2.76198e-07
0.165	2.0492e-08	2.15e-08	2.8027e-08	4.3566e-08	9.1464e-08	2.65652e-07
0.17	2.0326e-08	2.1549e-08	2.7341e-08	4.3023e-08	8.8886e-08	2.54944e-07
0.175	2.0181e-08	2.1366e-08	2.6579e-08	4.2222e-08	8.6456e-08	2.44282e-07
0.18	2.026e-08	2.1337e-08	2.633e-08	4.1047e-08	8.3736e-08	2.34172e-07
0.185	2.04e-08	2.1136e-08	2.6367e-08	4.0701e-08	8.127e-08	2.24416e-07
0.19	2.0249e-08	2.0863e-08	2.6071e-08	4.0447e-08	7.9043e-08	2.1541e-07
0.195	2.022e-08	2.0858e-08	2.5694e-08	3.9849e-08	7.6401e-08	2.07668e-07
0.2	2.0443e-08	2.0973e-08	2.5592e-08	3.9305e-08	7.394e-08	2.00148e-07
0.205	2.0566e-08	2.1076e-08	2.5273e-08	3.8425e-08	7.1881e-08	1.9249e-07
0.21	2.0764e-08	2.1112e-08	2.469e-08	3.7757e-08	6.9532e-08	1.85794e-07
0.215	2.0984e-08	2.1017e-08	2.4235e-08	3.7629e-08	6.7189e-08	1.79638e-07
0.22	2.1182e-08	2.0885e-08	2.399e-08	3.7008e-08	6.5377e-08	1.7289e-07
0.225	2.1246e-08	2.0914e-08	2.3861e-08	3.6201e-08	6.3699e-08	1.66208e-07
0.23	2.0945e-08	2.0938e-08	2.3673e-08	3.6004e-08	6.2206e-08	1.6068e-07
0.235	2.0774e-08	2.0836e-08	2.3505e-08	3.5324e-08	6.0893e-08	1.55176e-07
0.24	2.0703e-08	2.0781e-08	2.3413e-08	3.3853e-08	5.9685e-08	1.48794e-07
0.245	2.0256e-08	2.0842e-08	2.3307e-08	3.3202e-08	5.8638e-08	1.4282e-07
0.25	1.9971e-08	2.0769e-08	2.311e-08	3.311e-08	5.7533e-08	1.37858e-07
0.255	2.029e-08	2.0532e-08	2.2788e-08	3.2559e-08	5.62659999999999e-08	1.32852e-07
0.26	2.0555e-08	2.0482e-08	2.2489e-08	3.2245e-08	5.4831e-08	1.27904e-07
0.265	2.0631e-08	2.0738e-08	2.2465e-08	3.2394e-08	5.32809999999999e-08	1.23962e-07
0.27	2.0978e-08	2.0979e-08	2.2702e-08	3.2166e-08	5.1743e-08	1.20726e-07
0.275	2.1353e-08	2.1093e-08	2.3001e-08	3.1586e-08	5.09040000000001e-08	1.17268e-07
0.28	2.12033e-08	2.1411e-08	2.3e-08	3.1029e-08	5.03660000000001e-08	1.13546e-07
0.285	2.09966e-08	2.15638e-08	2.2773e-08	3.0444e-08	4.89940000000001e-08	1.10066e-07
0.29	2.1382e-08	2.1206e-08	2.2656e-08	3.0027e-08	4.77480000000001e-08	1.06486e-07
0.295	2.16697e-08	2.09673e-08	2.24432e-08	2.9727e-08	4.7224e-08	1.02688e-07
0.3	2.17034e-08	2.09525e-08	2.22014e-08	2.9443e-08	4.5993e-08	9.90309999999999e-08
0.305	2.19844e-08	2.09098e-08	2.24653e-08	2.9404e-08	4.4524e-08	9.55979999999999e-08
0.31	2.2176e-08	2.11605e-08	2.3464e-08	2.9384e-08	4.4278e-08	9.25919999999999e-08
0.315	2.22056e-08	2.16415e-08	2.39723e-08	2.89357e-08	4.4127e-08	9.04339999999999e-08
0.32	2.24033e-08	2.18633e-08	2.3147e-08	2.86064e-08	4.3337e-08	8.83549999999999e-08
0.325	2.27062e-08	2.19836e-08	2.24422e-08	2.84918e-08	4.2822e-08	8.60959999999999e-08
0.33	2.30264e-08	2.21156e-08	2.23058e-08	2.78719e-08	4.2365e-08	8.418e-08
0.335	2.31558e-08	2.27183e-08	2.17305e-08	2.71443e-08	4.18850000000001e-08	8.19040000000001e-08
0.34	2.30248e-08	2.33421e-08	2.1502e-08	2.70981e-08	4.16590000000001e-08	7.93180000000001e-08
0.345	2.28688e-08	2.28448e-08	2.24955e-08	2.71323e-08	4.11570000000001e-08	7.72960000000001e-08
0.35	2.29142e-08	2.22915e-08	2.32698e-08	2.70387e-08	4.05300000000001e-08	7.55340000000001e-08
0.355	2.35933e-08	2.24167e-08	2.31284e-08	2.73453e-08	4.0297e-08	7.375e-08
0.36	2.45678e-08	2.20023e-08	2.2959e-08	2.73e-08	4.01789e-08	7.21439999999999e-08
0.365	2.50008e-08	2.15733e-08	2.32008e-08	2.68467e-08	3.96319e-08	7.02609999999999e-08
0.37	2.50684e-08	2.33622e-08	2.34447e-08	2.65746e-08	3.90996e-08	6.83289999999999e-08
0.375	2.50772e-08	2.50187e-08	2.34595e-08	2.62134e-08	3.88056e-08	6.65839999999999e-08
0.38	2.49666e-08	2.42682e-08	2.37694e-08	2.59749e-08	3.81954e-08	6.50109999999999e-08
0.385	2.50628e-08	2.36661e-08	2.39526e-08	2.60832e-08	3.76428e-08	6.3849e-08
0.39	2.54118e-08	2.38031e-08	2.36989e-08	2.62688e-08	3.74079e-08	6.27259999999999e-08
0.395	2.57808e-08	2.30304e-08	2.37746e-08	2.65797e-08	3.70607e-08	6.1369e-08
0.4	2.5972e-08	2.26157e-08	2.41001e-08	2.69231e-08	3.66306e-08	6.02090000000001e-08
0.405	2.5945e-08	2.39617e-08	2.43851e-08	2.69429e-08	3.63181e-08	5.91780000000001e-08
0.41	2.5924e-08	2.5198e-08	2.45979e-08	2.69615e-08	3.59757e-08	5.87470000000001e-08
0.415	2.6178e-08	2.545e-08	2.4709e-08	2.68467e-08	3.56974e-08	5.84530000000001e-08
0.42	2.6775e-08	2.5503e-08	2.4702e-08	2.6654e-08	3.54566e-08	5.6563e-08
0.425	2.7356e-08	2.5546e-08	2.4557e-08	2.6677e-08	3.50938e-08	5.4513e-08
0.43	2.7681e-08	2.5474e-08	2.4555e-08	2.6478e-08	3.49855e-08	5.33296e-08
0.435	2.7782e-08	2.5326e-08	2.489e-08	2.6401e-08	3.47666e-08	5.15089e-08
0.44	2.7949e-08	2.5414e-08	2.5197e-08	2.6676e-08	3.47228e-08	5.00481e-08
0.445	2.8171e-08	2.5915e-08	2.542e-08	2.6923e-08	3.50551e-08	5.04413e-08
0.45	2.8485e-08	2.6573e-08	2.7054e-08	2.7004e-08	3.456e-08	5.07539e-08
0.455	2.9084e-08	2.7119e-08	2.8114e-08	2.7239e-08	3.3728e-08	5.01141e-08
0.46	2.9625e-08	2.7445e-08	2.6573e-08	2.7663e-08	3.3414e-08	4.92777000000001e-08
0.465	2.988e-08	2.7612e-08	2.6046e-08	2.7764e-08	3.2838e-08	4.84454000000001e-08
0.47	3.0138e-08	2.7535e-08	2.6435e-08	2.7457e-08	3.2034e-08	4.81901000000001e-08
0.475	3.0308e-08	2.7489e-08	2.5151e-08	2.748e-08	3.209e-08	4.79363000000001e-08
0.48	3.0177e-08	2.7768e-08	2.5026e-08	2.7737e-08	3.2397e-08	4.72913e-08
0.485	3.0325e-08	2.8208e-08	2.7173e-08	2.77e-08	3.2238e-08	4.71354e-08
0.49	3.0717e-08	2.8713e-08	2.8056e-08	2.7763e-08	3.2246e-08	4.69825e-08
0.495	3.1059e-08	2.8978e-08	2.8266e-08	2.8123e-08	3.2542e-08	4.60526e-08
0.5	3.1645e-08	2.9221e-08	2.8914e-08	2.847e-08	3.2802e-08	4.54268e-08
0.505	3.2245e-08	2.9725e-08	2.8745e-08	2.8752e-08	3.2974e-08	4.5596e-08
0.51	3.2354e-08	2.9905e-08	2.8639e-08	2.9017e-08	3.3075e-08	4.5352e-08
0.515	3.2228e-08	2.987e-08	2.8916e-08	2.9266e-08	3.2986e-08	4.4609e-08
0.52	3.2545e-08	3.0246e-08	2.9185e-08	2.9477e-08	3.2794e-08	4.4433e-08
0.525	3.3077e-08	3.0578e-08	2.9299e-08	2.9504e-08	3.2583e-08	4.4694e-08
0.53	3.3526e-08	3.0689e-08	2.9351e-08	2.9619e-08	3.239e-08	4.4436e-08
0.535	3.4236e-08	3.1095e-08	2.9815e-08	2.973e-08	3.2294e-08	4.4041e-08
0.54	3.5191e-08	3.179e-08	3.0214e-08	2.998e-08	3.2263e-08	4.4019e-08
0.545	3.574e-08	3.2351e-08	3.0328e-08	3.0562e-08	3.2471e-08	4.3573e-08
0.55	3.56440000000001e-08	3.2614e-08	3.0679e-08	3.086e-08	3.2782e-08	4.26430000000001e-08
0.555	3.55820000000001e-08	3.28540000000001e-08	3.12240000000001e-08	3.06970000000001e-08	3.28940000000001e-08	4.21460000000002e-08
0.56	3.59890000000001e-08	3.33770000000001e-08	3.15220000000001e-08	3.07060000000001e-08	3.32530000000001e-08	4.21710000000001e-08
0.565	3.61990000000001e-08	3.39070000000001e-08	3.28730000000001e-08	3.09120000000001e-08	3.36610000000001e-08	4.22790000000001e-08
0.57	3.61590000000001e-08	3.41980000000001e-08	3.42460000000001e-08	3.11760000000001e-08	3.33750000000001e-08	4.21990000000001e-08
0.575	3.6841e-08	3.45890000000001e-08	3.31600000000001e-08	3.19100000000001e-08	3.2971e-08	4.1909e-08
0.58	3.7937e-08	3.5238e-08	3.2208e-08	3.248e-08	3.2991e-08	4.1619e-08
0.585	3.8614e-08	3.5499e-08	3.2736e-08	3.2596e-08	3.3212e-08	4.123e-08
0.59	3.9291e-08	3.5455e-08	3.2231e-08	3.2978e-08	3.3454e-08	4.102e-08
0.595	4.003e-08	3.6104e-08	3.1646e-08	3.3354e-08	3.3898e-08	4.1268e-08
0.6	4.0105e-08	3.663e-08	3.3578e-08	3.3258e-08	3.4706e-08	4.1534e-08
0.605	3.9942e-08	3.556e-08	3.5191e-08	3.3502e-08	3.5374e-08	4.1457e-08
0.61	4.0628e-08	3.4825e-08	3.524e-08	3.4248e-08	3.5444e-08	4.1392e-08
0.615	4.1847e-08	3.6082e-08	3.5499e-08	3.4389e-08	3.5375e-08	4.1384e-08
0.62	4.2296e-08	3.7208e-08	3.5556e-08	3.4088e-08	3.5533e-08	4.0847e-08
0.625	4.2331e-08	3.8049e-08	3.5361e-08	3.4269e-08	3.5403e-08	4.0283e-08
0.63	4.2511e-08	3.9689e-08	3.5705e-08	3.4787e-08	3.5171e-08	4.02239999999999e-08
0.635	4.2123e-08	4.08669999999999e-08	3.6332e-08	3.51609999999999e-08	3.5563e-08	3.9809e-08
0.64	4.1702e-08	4.0709e-08	3.6478e-08	3.56419999999999e-08	3.6088e-08	3.9421e-08
0.645	4.2459e-08	4.0163e-08	3.6941e-08	3.63049999999999e-08	3.6214e-08	3.9926e-08
0.65	4.3894e-08	3.9932e-08	3.7829e-08	3.6842e-08	3.6577e-08	4.04949999999999e-08
0.655	4.5176e-08	4.042e-08	3.8234e-08	3.7283e-08	3.7356e-08	4.0847e-08
0.66	4.6175e-08	4.1123e-08	3.8368e-08	3.7812e-08	3.7718e-08	4.1119e-08
0.665	4.6952e-08	4.1283e-08	3.8817e-08	3.8144e-08	3.7848e-08	4.1122e-08
0.67	4.783e-08	4.2099e-08	3.9318e-08	3.7982e-08	3.8307e-08	4.1186e-08
0.675	4.8797e-08	4.31560000000001e-08	3.97250000000001e-08	3.7939e-08	3.84960000000001e-08	4.11800000000001e-08
0.68	4.94320000000002e-08	4.37210000000002e-08	4.01410000000001e-08	3.80470000000001e-08	3.85940000000002e-08	4.08670000000002e-08
0.685	4.98150000000002e-08	4.46090000000002e-08	4.07260000000002e-08	3.86280000000001e-08	3.88970000000001e-08	4.10810000000002e-08
0.69	4.99550000000002e-08	4.54730000000001e-08	4.16600000000001e-08	3.99730000000001e-08	3.90470000000001e-08	4.18490000000001e-08
0.695	4.96810000000002e-08	4.58290000000001e-08	4.22210000000002e-08	4.35800000000002e-08	3.95610000000001e-08	4.24980000000001e-08
0.7	4.95940000000001e-08	4.59850000000001e-08	4.23280000000001e-08	4.63100000000001e-08	4.0361e-08	4.2934e-08
0.705	5.0098e-08	4.9285e-08	4.2221e-08	4.3646e-08	4.0696e-08	4.31679999999999e-08
0.71	5.0836e-08	5.56649999999999e-08	4.22789999999999e-08	4.12249999999999e-08	4.1295e-08	4.37369999999999e-08
0.715	5.1378e-08	5.54839999999999e-08	4.32059999999999e-08	4.16129999999999e-08	4.24349999999999e-08	4.43489999999999e-08
0.72	5.20479999999999e-08	4.8941e-08	4.3951e-08	3.96919999999999e-08	4.29999999999999e-08	4.418e-08
0.725	5.28339999999999e-08	4.62439999999999e-08	4.4367e-08	3.78189999999999e-08	4.3084e-08	4.4016e-08
0.73	5.2884e-08	4.392e-08	4.5638e-08	4.1281e-08	4.3511e-08	4.4496e-08
0.735	5.29119999999999e-08	3.8432e-08	4.6446e-08	4.4427e-08	4.37219999999999e-08	4.4586e-08
0.74	5.42519999999999e-08	3.9706e-08	4.6022e-08	4.4225e-08	4.3265e-08	4.3844e-08
0.745	5.58499999999999e-08	4.7182e-08	4.6396e-08	4.4144e-08	4.3242e-08	4.366e-08
0.75	5.72139999999999e-08	5.09519999999999e-08	4.7434e-08	4.47659999999999e-08	4.4096e-08	4.4492e-08
0.755	5.89919999999999e-08	5.14979999999999e-08	4.8044e-08	4.54479999999999e-08	4.466e-08	4.554e-08
0.76	5.94479999999999e-08	5.1816e-08	4.8416e-08	4.5424e-08	4.4424e-08	4.6288e-08
0.765	5.8484e-08	5.1972e-08	4.83979999999999e-08	4.5214e-08	4.419e-08	4.64279999999999e-08
0.77	5.8136e-08	5.2406e-08	4.8628e-08	4.5214e-08	4.4678e-08	4.63219999999999e-08
0.775	5.778e-08	5.31719999999999e-08	4.93399999999999e-08	4.4508e-08	4.57559999999999e-08	4.667e-08
0.78	5.75479999999999e-08	5.39819999999999e-08	4.99579999999999e-08	4.437e-08	4.64179999999999e-08	4.6764e-08
0.785	5.95779999999999e-08	5.47539999999999e-08	5.08339999999999e-08	4.6274e-08	4.67659999999999e-08	4.6538e-08
0.79	6.19499999999999e-08	5.54119999999999e-08	5.1406e-08	4.81639999999999e-08	4.76259999999999e-08	4.7598e-08
0.795	6.28359999999999e-08	5.5786e-08	5.0552e-08	4.94019999999999e-08	4.82779999999999e-08	4.8986e-08
0.8	6.40860000000001e-08	5.62740000000002e-08	4.98200000000001e-08	5.12920000000001e-08	4.83200000000001e-08	4.89360000000001e-08
0.805	6.48700000000003e-08	5.71100000000003e-08	5.04660000000002e-08	5.26620000000002e-08	4.86840000000002e-08	4.88500000000002e-08
0.81	6.41040000000002e-08	5.80500000000002e-08	5.15560000000002e-08	5.19880000000002e-08	4.95800000000002e-08	4.95000000000002e-08
0.815	6.39800000000003e-08	5.89400000000002e-08	5.34420000000002e-08	5.15620000000002e-08	5.05040000000002e-08	4.97300000000002e-08
0.82	6.49140000000002e-08	5.96580000000002e-08	5.60040000000002e-08	5.27880000000002e-08	4.93500000000002e-08	4.99580000000002e-08
0.825	6.5402e-08	6.01560000000001e-08	5.72060000000001e-08	5.38200000000001e-08	4.69080000000001e-08	5.0596e-08
0.83	6.60239999999999e-08	6.05379999999999e-08	5.725e-08	5.37579999999999e-08	4.79519999999999e-08	5.08159999999999e-08
0.835	6.75999999999999e-08	6.0642e-08	5.78e-08	5.38299999999999e-08	5.0668e-08	5.1226e-08
0.84	6.92499999999999e-08	6.163e-08	5.79759999999999e-08	5.42739999999999e-08	5.1826e-08	5.226e-08
0.845	7.01199999999999e-08	6.37239999999999e-08	5.74999999999999e-08	5.39819999999999e-08	5.428e-08	5.2378e-08
0.85	7.109e-08	6.45799999999999e-08	5.80599999999999e-08	5.39299999999999e-08	5.7268e-08	5.6864e-08
0.855	7.6644e-08	6.4898e-08	5.87399999999999e-08	5.5254e-08	5.6952e-08	6.23419999999999e-08
0.86	8.17619999999999e-08	6.62819999999999e-08	5.90499999999999e-08	5.7224e-08	5.52639999999999e-08	5.82339999999999e-08
0.865	7.86839999999999e-08	6.64319999999999e-08	5.9796e-08	5.8508e-08	5.51999999999999e-08	5.3742e-08
0.87	7.68299999999999e-08	6.5588e-08	6.0674e-08	5.86419999999999e-08	5.57059999999999e-08	5.44759999999999e-08
0.875	7.82679999999999e-08	6.66479999999999e-08	6.16799999999999e-08	5.8408e-08	5.62599999999999e-08	5.09319999999999e-08
0.88	7.37839999999999e-08	6.87179999999999e-08	6.26519999999999e-08	5.9122e-08	5.7352e-08	4.7432e-08
0.885	7.0388e-08	6.98759999999999e-08	6.35779999999999e-08	6.03719999999999e-08	5.9046e-08	5.31159999999999e-08
0.89	7.5918e-08	7.10599999999999e-08	6.512e-08	6.17619999999999e-08	6.0514e-08	5.83939999999999e-08
0.895	7.865e-08	7.34033333333332e-08	6.75466666666667e-08	6.60099999999998e-08	6.23733333333334e-08	5.98333333333333e-08
0.9	8.51600000000001e-08	7.12999999999997e-08	7.10200000000001e-08	6.77399999999998e-08	6.31800000000001e-08	5.92799999999999e-08
