Vgs	Gm_Vds=0.01V	Gm_Vds=0.02V	Gm_Vds=0.03V	Gm_Vds=0.04V	Gm_Vds=0.05V	Gm_Vds=0.06V	Gm_Vds=0.07V	Gm_Vds=0.08V	Gm_Vds=0.09V	Gm_Vds=0.1V
-0.3	-3.344e-09	1.788e-09	9.83999999999998e-10	9.55999999999998e-10	2.974e-09	2.872e-09	1.096e-09	2.684e-09	7.80000000000021e-11	5.86000000000001e-10
-0.295	-1.65933333333333e-09	1.36766666666667e-09	7.57666666666665e-10	1.0045e-09	2.35616666666666e-09	2.562e-09	1.43833333333333e-09	2.42833333333333e-09	7.27166666666668e-10	1.25933333333333e-09
-0.29	-6.61799999999998e-10	1.0015e-09	8.52600000000001e-10	1.1168e-09	1.9156e-09	2.2298e-09	1.64e-09	2.3018e-09	1.55610000000001e-09	1.97680000000001e-09
-0.285	-1.05999999999981e-11	7.98800000000001e-10	8.99900000000001e-10	1.2716e-09	1.7108e-09	2.0716e-09	1.9245e-09	2.274e-09	2.1961e-09	2.60180000000001e-09
-0.28	4.14200000000002e-10	6.87600000000001e-10	1.0067e-09	1.4905e-09	1.6941e-09	2.0004e-09	2.2843e-09	2.4204e-09	2.885e-09	3.2446e-09
-0.275	4.02900000000002e-10	7.42700000000001e-10	1.2103e-09	1.7318e-09	1.9634e-09	2.1738e-09	2.5855e-09	2.7789e-09	3.467e-09	3.8146e-09
-0.27	2.689e-10	9.596e-10	1.4401e-09	1.9858e-09	2.4479e-09	2.5562e-09	3.0303e-09	3.3026e-09	3.9507e-09	4.361e-09
-0.265	3.911e-10	1.2392e-09	1.6756e-09	2.2624e-09	2.9253e-09	3.0128e-09	3.6549e-09	3.9642e-09	4.5077e-09	4.9784e-09
-0.26	7.06799999999999e-10	1.4956e-09	1.987e-09	2.6324e-09	3.3057e-09	3.5608e-09	4.2357e-09	4.6908e-09	5.1829e-09	5.6996e-09
-0.255	1.0497e-09	1.778e-09	2.3838e-09	3.0618e-09	3.7016e-09	4.1869e-09	4.8666e-09	5.4161e-09	5.9258e-09	6.46259999999999e-09
-0.25	1.3468e-09	2.1205e-09	2.8295e-09	3.5505e-09	4.1206e-09	4.8314e-09	5.5499e-09	6.22219999999999e-09	6.72759999999999e-09	7.27829999999999e-09
-0.245	1.5699e-09	2.4691e-09	3.2619e-09	4.1651e-09	4.5923e-09	5.5369e-09	6.1935e-09	7.126e-09	7.6741e-09	8.2742e-09
-0.24	1.6908e-09	2.8177e-09	3.7482e-09	4.8376e-09	5.229e-09	6.3548e-09	6.9944e-09	8.0717e-09	8.73430000000001e-09	9.46610000000001e-09
-0.235	1.7544e-09	3.2159e-09	4.3475e-09	5.4937e-09	6.0769e-09	7.2907e-09	7.9753e-09	9.1474e-09	9.8359e-09	1.08048e-08
-0.23	1.7945e-09	3.6897e-09	4.9824e-09	6.2626e-09	7.1004e-09	8.2977e-09	9.0627e-09	1.04208e-08	1.11199e-08	1.23381e-08
-0.225	1.9449e-09	4.1984e-09	5.6881e-09	7.1834e-09	8.2416e-09	9.5005e-09	1.03801e-08	1.18888e-08	1.26618e-08	1.41683e-08
-0.22	2.2528e-09	4.7758e-09	6.5647e-09	8.1684e-09	9.5044e-09	1.0902e-08	1.19459e-08	1.35435e-08	1.44496e-08	1.61759e-08
-0.215	2.6393e-09	5.4503e-09	7.5433e-09	9.3282e-09	1.0952e-08	1.23817e-08	1.36928e-08	1.54671e-08	1.65641e-08	1.83139e-08
-0.21	3.1476e-09	6.2199e-09	8.57760000000001e-09	1.06967e-08	1.25427e-08	1.41158e-08	1.57224e-08	1.7698e-08	1.90431e-08	2.08929e-08
-0.205	3.782e-09	7.0996e-09	9.8161e-09	1.22291e-08	1.43001e-08	1.62314e-08	1.80023e-08	2.01464e-08	2.18887e-08	2.38853e-08
-0.2	4.4564e-09	8.111e-09	1.12413e-08	1.39379e-08	1.63702e-08	1.85877e-08	2.05769e-08	2.28783e-08	2.51229e-08	2.70416e-08
-0.195	5.1229e-09	9.237e-09	1.27874e-08	1.58738e-08	1.86418e-08	2.1141e-08	2.35396e-08	2.6029e-08	2.86589e-08	3.06862e-08
-0.19	5.8353e-09	1.04931e-08	1.45351e-08	1.80609e-08	2.10737e-08	2.41268e-08	2.67097e-08	2.9566e-08	3.25594e-08	3.50702e-08
-0.185	6.5581e-09	1.19553e-08	1.65556e-08	2.05242e-08	2.39624e-08	2.75855e-08	3.02507e-08	3.35468e-08	3.7077e-08	4.00111e-08
-0.18	7.3511e-09	1.36285e-08	1.88199e-08	2.32723e-08	2.74611e-08	3.13774e-08	3.45158e-08	3.82083e-08	4.22425e-08	4.56354e-08
-0.175	8.3995e-09	1.55645e-08	2.13784e-08	2.63779e-08	3.13829e-08	3.56792e-08	3.94534e-08	4.36056e-08	4.803e-08	5.2184e-08
-0.17	9.6895e-09	1.78136e-08	2.44303e-08	3.00331e-08	3.57777e-08	4.07532e-08	4.49956e-08	4.9819e-08	5.475e-08	5.9644e-08
-0.165	1.11993e-08	2.03459e-08	2.79062e-08	3.43383e-08	4.08938e-08	4.65109e-08	5.1429e-08	5.7032e-08	6.2631e-08	6.8145e-08
-0.16	1.29999e-08	2.31823e-08	3.17476e-08	3.93174e-08	4.66771e-08	5.2933e-08	5.8764e-08	6.5219e-08	7.1316e-08	7.7696e-08
-0.155	1.49586e-08	2.64776e-08	3.62192e-08	4.50225e-08	5.3036e-08	6.0362e-08	6.6971e-08	7.439e-08	8.0983e-08	8.8365e-08
-0.15	1.70315e-08	3.03429e-08	4.13668e-08	5.1631e-08	6.0235e-08	6.8954e-08	7.62960000000001e-08	8.4947e-08	9.2296e-08	1.00613e-07
-0.145	1.94055e-08	3.47265e-08	4.71485e-08	5.9276e-08	6.864e-08	7.8808e-08	8.6923e-08	9.7191e-08	1.05205e-07	1.14673e-07
-0.14	2.20613e-08	3.96769e-08	5.3893e-08	6.7885e-08	7.8474e-08	9.001e-08	9.9192e-08	1.10676e-07	1.19868e-07	1.30589e-07
-0.135	2.51547e-08	4.54272e-08	6.1765e-08	7.743e-08	8.9807e-08	1.02772e-07	1.13502e-07	1.25782e-07	1.36884e-07	1.48794e-07
-0.13	2.88834e-08	5.1982e-08	7.0694e-08	8.8338e-08	1.02647e-07	1.17555e-07	1.29901e-07	1.4349e-07	1.56497e-07	1.69416e-07
-0.125	3.30428e-08	5.9268e-08	8.098e-08	1.01115e-07	1.17434e-07	1.34428e-07	1.48378e-07	1.63546e-07	1.78622e-07	1.93587e-07
-0.12	3.77321e-08	6.764e-08	9.2727e-08	1.15347e-07	1.34349e-07	1.53513e-07	1.69477e-07	1.86233e-07	2.03956e-07	2.223e-07
-0.115	4.31529e-08	7.7385e-08	1.05788e-07	1.31267e-07	1.53285e-07	1.75348e-07	1.93793e-07	2.13222e-07	2.33615e-07	2.54369e-07
-0.11	4.91961e-08	8.8315e-08	1.20677e-07	1.50013e-07	1.74876e-07	2.00777e-07	2.21665e-07	2.44639e-07	2.67353e-07	2.90045e-07
-0.105	5.5982e-08	1.00543e-07	1.38024e-07	1.71702e-07	2.00169e-07	2.30011e-07	2.53386e-07	2.79644e-07	3.04858e-07	3.31068e-07
-0.1	6.3641e-08	1.14729e-07	1.57742e-07	1.95959e-07	2.29017e-07	2.62535e-07	2.89652e-07	3.19329e-07	3.475e-07	3.76994e-07
-0.095	7.2403e-08	1.31212e-07	1.79993e-07	2.24292e-07	2.61796e-07	2.99328e-07	3.31002e-07	3.64805e-07	3.96497e-07	4.28185e-07
-0.09	8.2755e-08	1.49938e-07	2.06229e-07	2.57781e-07	2.99776e-07	3.4133e-07	3.77515e-07	4.16168e-07	4.5199e-07	4.8804e-07
-0.085	9.4863e-08	1.71661e-07	2.36589e-07	2.95043e-07	3.42643e-07	3.88266e-07	4.30358e-07	4.74671e-07	5.1625e-07	5.57796e-07
-0.08	1.08943e-07	1.96844e-07	2.70008e-07	3.36421e-07	3.90727e-07	4.41532e-07	4.91002e-07	5.41582e-07	5.90134e-07	6.36868e-07
-0.075	1.2524e-07	2.25932e-07	3.07791e-07	3.84026e-07	4.46158e-07	5.03364e-07	5.60432e-07	6.17858e-07	6.72938e-07	7.27104e-07
-0.07	1.43629e-07	2.59496e-07	3.51571e-07	4.37871e-07	5.09544e-07	5.74344e-07	6.39966e-07	7.0482e-07	7.67348e-07	8.31476e-07
-0.065	1.6439e-07	2.97032e-07	4.01189e-07	4.986e-07	5.80936e-07	6.55966e-07	7.30904e-07	8.04388e-07	8.76044e-07	9.51364e-07
-0.06	1.87936e-07	3.39045e-07	4.58117e-07	5.69382e-07	6.63258e-07	7.51026e-07	8.35004e-07	9.18772e-07	9.99066e-07	1.086346e-06
-0.055	2.15797e-07	3.87143e-07	5.24462e-07	6.5174e-07	7.59058e-07	8.60676e-07	9.54536e-07	1.049548e-06	1.138302e-06	1.239946e-06
-0.05	2.4866e-07	4.41758e-07	5.99938e-07	7.4563e-07	8.67884e-07	9.84784e-07	1.091514e-06	1.19914e-06	1.299624e-06	1.416892e-06
-0.045	2.84789e-07	5.03976e-07	6.86152e-07	8.51054e-07	9.9196e-07	1.125498e-06	1.247756e-06	1.369028e-06	1.486762e-06	1.618722e-06
-0.04	3.25628e-07	5.75584e-07	7.85474e-07	9.71444e-07	1.13472e-06	1.285716e-06	1.425662e-06	1.563826e-06	1.700718e-06	1.847468e-06
-0.035	3.72834e-07	6.58112e-07	8.99522e-07	1.112684e-06	1.297258e-06	1.467964e-06	1.630688e-06	1.789268e-06	1.943526e-06	2.109988e-06
-0.03	4.25395e-07	7.52624e-07	1.028954e-06	1.27515e-06	1.48234e-06	1.677078e-06	1.866146e-06	2.04357e-06	2.220042e-06	2.41382e-06
-0.025	4.84565e-07	8.60172e-07	1.175796e-06	1.45861e-06	1.693676e-06	1.91765e-06	2.134062e-06	2.33193e-06	2.540076e-06	2.76162e-06
-0.02	5.52444e-07	9.83908e-07	1.344988e-06	1.666768e-06	1.935126e-06	2.192714e-06	2.440282e-06	2.669176e-06	2.906756e-06	3.15384e-06
-0.015	6.30712e-07	1.1263e-06	1.5399e-06	1.905632e-06	2.215158e-06	2.508172e-06	2.788368e-06	3.056246e-06	3.31979e-06	3.597072e-06
-0.01	7.22316e-07	1.288146e-06	1.760522e-06	2.177582e-06	2.538436e-06	2.865578e-06	3.181246e-06	3.488084e-06	3.787032e-06	4.10066e-06
-0.005	8.26984e-07	1.472368e-06	2.011366e-06	2.486396e-06	2.90498e-06	3.276882e-06	3.633208e-06	3.988052e-06	4.325992e-06	4.675262e-06
0	9.4223e-07	1.682478e-06	2.305408e-06	2.841002e-06	3.319812e-06	3.75249e-06	4.156812e-06	4.570148e-06	4.936476e-06	5.3358e-06
0.005	1.075922e-06	1.924014e-06	2.644024e-06	3.252886e-06	3.78849e-06	4.28917e-06	4.753966e-06	5.2208e-06	5.628e-06	6.1052e-06
0.01	1.230652e-06	2.204066e-06	3.017974e-06	3.729404e-06	4.32277e-06	4.896756e-06	5.4326e-06	5.9536e-06	6.441e-06	6.9976e-06
0.015	1.405692e-06	2.525936e-06	3.444004e-06	4.267096e-06	4.94236e-06	5.5832e-06	6.2078e-06	6.7976e-06	7.3722e-06	8.0014e-06
0.02	1.611176e-06	2.881606e-06	3.935022e-06	4.869276e-06	5.652e-06	6.3794e-06	7.0974e-06	7.7534e-06	8.42e-06	9.1282e-06
0.025	1.851036e-06	3.278884e-06	4.481684e-06	5.5542e-06	6.4652e-06	7.3176e-06	8.12e-06	8.832e-06	9.6372e-06	1.04142e-05
0.03	2.119948e-06	3.749786e-06	5.1066e-06	6.3416e-06	7.4e-06	8.363e-06	9.2802e-06	1.00824e-05	1.10186e-05	1.18678e-05
0.035	2.417856e-06	4.293392e-06	5.8472e-06	7.2572e-06	8.4508e-06	9.5354e-06	1.06112e-05	1.15268e-05	1.25618e-05	1.35426e-05
0.04	2.768578e-06	4.897454e-06	6.6906e-06	8.3192e-06	9.6576e-06	1.09074e-05	1.21602e-05	1.3174e-05	1.43378e-05	1.55008e-05
0.045	3.170418e-06	5.5996e-06	7.6438e-06	9.5006e-06	1.1051e-05	1.24598e-05	1.39128e-05	1.50854e-05	1.6383e-05	1.7709e-05
0.05	3.617056e-06	6.4188e-06	8.758e-06	1.083e-05	1.2593e-05	1.41922e-05	1.58646e-05	1.72844e-05	1.86984e-05	2.01786e-05
0.055	4.13164e-06	7.3242e-06	1.00296e-05	1.2367e-05	1.43218e-05	1.62138e-05	1.80794e-05	1.97566e-05	2.13556e-05	2.3008e-05
0.06	4.719956e-06	8.3534e-06	1.14326e-05	1.41366e-05	1.63674e-05	1.85334e-05	2.06728e-05	2.25498e-05	2.44628e-05	2.6278e-05
0.065	5.3678e-06	9.5378e-06	1.3029e-05	1.61512e-05	1.8728e-05	2.11198e-05	2.3686e-05	2.5732e-05	2.79336e-05	2.99904e-05
0.07	6.0976e-06	1.08592e-05	1.49128e-05	1.84286e-05	2.14028e-05	2.41266e-05	2.70202e-05	2.93662e-05	3.17604e-05	3.42312e-05
0.075	6.9662e-06	1.2386e-05	1.7019e-05	2.10682e-05	2.44572e-05	2.75966e-05	3.07596e-05	3.35178e-05	3.61918e-05	3.91554e-05
0.08	7.9752e-06	1.41984e-05	1.93768e-05	2.40802e-05	2.7904e-05	3.1474e-05	3.50588e-05	3.82512e-05	4.13122e-05	4.46984e-05
0.085	9.0766e-06	1.62366e-05	2.21704e-05	2.74116e-05	3.1781e-05	3.59262e-05	3.98836e-05	4.36258e-05	4.70512e-05	5.0869e-05
0.09	1.03204e-05	1.85078e-05	2.53802e-05	3.12316e-05	3.62712e-05	4.1074e-05	4.53392e-05	4.9748e-05	5.3589e-05	5.8012e-05
0.095	1.1786e-05	2.1163e-05	2.8932e-05	3.56634e-05	4.14542e-05	4.67558e-05	5.1744e-05	5.6677e-05	6.1171e-05	6.616e-05
0.1	1.34318e-05	2.41748e-05	3.29612e-05	4.06846e-05	4.72342e-05	5.3209e-05	5.9181e-05	6.4505e-05	6.9909e-05	7.5269e-05
0.105	1.5265e-05	2.7444e-05	3.7551e-05	4.642e-05	5.3796e-05	6.0768e-05	6.7559e-05	7.3422e-05	7.9778e-05	8.5799e-05
0.11	1.74222e-05	3.11988e-05	4.27418e-05	5.2886e-05	6.1345e-05	6.926e-05	7.7069e-05	8.3629e-05	9.0856e-05	9.7978e-05
0.115	1.99036e-05	3.56386e-05	4.87084e-05	6.0064e-05	6.9856e-05	7.8838e-05	8.7818e-05	9.5274e-05	0.000103553	0.000111537
0.12	2.2618e-05	4.06216e-05	5.5432e-05	6.8421e-05	7.932e-05	8.9781e-05	9.9911e-05	0.000108732	0.000118135	0.000126873
0.125	2.56094e-05	4.62198e-05	6.3089e-05	7.8242e-05	9.0217e-05	0.000102132	0.000113537	0.000123919	0.00013446	0.00014453
0.13	2.91332e-05	5.2704e-05	7.1998e-05	8.9114e-05	0.000102878	0.000116177	0.000129047	0.000140671	0.0001527	0.000164203
0.135	3.33194e-05	6.0012e-05	8.198e-05	0.000101047	0.000117127	0.000132195	0.000146945	0.00015978	0.000173451	0.000186231
0.14	3.78846e-05	6.8071e-05	9.2954e-05	0.000114684	0.000133129	0.000150139	0.000166996	0.000181696	0.000196707	0.000211874
0.145	4.2935e-05	7.7278e-05	0.000105564	0.000130425	0.000151385	0.000170458	0.000189528	0.000206482	0.000222868	0.000241039
0.15	4.8756e-05	8.7685e-05	0.000120086	0.000148054	0.000172084	0.000193544	0.000215361	0.000234141	0.000253114	0.000272969
0.155	5.5087e-05	9.9139e-05	0.000136044	0.000167809	0.000195457	0.000219486	0.000244351	0.000265379	0.000287645	0.000309243
0.16	6.2055e-05	0.000112193	0.000153943	0.000190611	0.000221632	0.000249123	0.000276442	0.00030101	0.000325662	0.000350651
0.165	7.0363e-05	0.000127338	0.000174642	0.000217011	0.000251152	0.000283151	0.000312477	0.00034114	0.000368487	0.000396487
0.17	7.9911e-05	0.000144326	0.000197941	0.000246074	0.000284844	0.000321109	0.000353718	0.000385922	0.000417676	0.000448467
0.175	9.0436e-05	0.000163395	0.00022389	0.000277653	0.000322429	0.000363509	0.000400796	0.000436681	0.00047248	0.0005087
0.18	0.000102403	0.000185114	0.000253276	0.000313737	0.000364318	0.000411699	0.0004539	0.00049464	0.00053374	0.00057582
0.185	0.000115579	0.000209587	0.000286896	0.000354296	0.000411806	0.000465236	0.0005145	0.00055988	0.00060324	0.00064896
0.19	0.000129655	0.00023633	0.000324488	0.000398407	0.00046426	0.00052382	0.00058246	0.00063298	0.00068076	0.00073134
0.195	0.000145593	0.000265174	0.0003657	0.000448234	0.00052194	0.00059048	0.00065652	0.00071416	0.00076832	0.00082548
0.2	0.000163718	0.000297874	0.000411361	0.0005057	0.0005878	0.00066616	0.00073832	0.00080334	0.00086716	0.00092922
0.205	0.000183698	0.000334904	0.00046202	0.00057016	0.00066284	0.00074954	0.00082996	0.00090252	0.0009758	0.0010437
0.21	0.000206051	0.000375213	0.0005183	0.00064228	0.00074652	0.00084286	0.00093236	0.00101362	0.0010977	0.00117484
0.215	0.000230551	0.000420434	0.00058138	0.00072242	0.00083864	0.00094616	0.00104706	0.00113618	0.00123422	0.00132112
0.22	0.000257265	0.00047282	0.00065128	0.00080904	0.0009419	0.0010604	0.00117556	0.00127474	0.00138306	0.00147982
0.225	0.000286862	0.00053014	0.00072838	0.00090408	0.00105768	0.00118894	0.00131852	0.00143326	0.00154872	0.00165748
0.23	0.0003193	0.00059116	0.0008157	0.00101154	0.00118376	0.0013313	0.00147824	0.00160774	0.00173564	0.0018622
0.235	0.000354976	0.00065908	0.00091278	0.00113074	0.00132208	0.001489	0.0016545	0.00179938	0.00194434	0.00208814
0.24	0.000395041	0.00073504	0.00101892	0.00126176	0.00147802	0.00166756	0.00184998	0.00201522	0.00217892	0.00233248
0.245	0.00043938	0.00081726	0.00113736	0.00140816	0.0016494	0.00186678	0.0020688	0.00225302	0.0024349	0.00260424
0.25	0.00048722	0.000906919999999999	0.00126726	0.00156928	0.00183714	0.0020841	0.0023086	0.00251014	0.00271066	0.00290306
0.255	0.000538279999999999	0.0010063	0.00140642	0.00174366	0.00204576	0.00231978	0.00256736	0.00279262	0.0030138	0.00322306
0.26	0.000593339999999999	0.00111504	0.00155814	0.00193656	0.00227262	0.00257608	0.00285006	0.00310496	0.0033438	0.0035725
0.265	0.00065396	0.00123172	0.00172254	0.00214932	0.00251954	0.00285516	0.00315668	0.00344368	0.00369932	0.003959
0.27	0.00071978	0.0013569	0.0019012	0.00237668	0.0027879	0.00315574	0.00348552	0.00380546	0.0040902	0.0043772
0.275	0.000790340000000001	0.00149242	0.00209888	0.00261962	0.00307590000000001	0.00348040000000001	0.00384340000000001	0.00419740000000001	0.00451940000000001	0.00482940000000001
0.28	0.000866400000000001	0.00163924	0.00231088	0.0028829	0.00338640000000001	0.00383480000000001	0.00423220000000001	0.00462580000000001	0.00498400000000001	0.00532280000000001
0.285	0.000946360000000001	0.00179936	0.0025324	0.00316454	0.0037198	0.00421640000000001	0.00465580000000001	0.00508460000000001	0.00548160000000001	0.00585520000000001
0.29	0.00102966	0.00197018	0.00276942	0.0034627	0.0040736	0.004624	0.00511440000000001	0.00557520000000001	0.00601480000000001	0.00642280000000001
0.295	0.0011179	0.0021475	0.00302158	0.0037794	0.004453	0.0050608	0.0055992	0.0061038	0.0065918	0.0070298
0.3	0.0012096	0.00232904	0.00328012	0.0041086	0.00485119999999999	0.0055178	0.00610779999999999	0.00666439999999999	0.00719279999999999	0.00766679999999999
0.305	0.00130564	0.00251958	0.0035554	0.0044568	0.0052646	0.005999	0.0066532	0.00725819999999999	0.00781939999999999	0.00833979999999999
0.31	0.00140706	0.00271912	0.0038518	0.0048286	0.0057076	0.00651239999999999	0.00722879999999999	0.00788299999999999	0.00849179999999999	0.00905359999999999
0.315	0.00151214	0.00292034	0.0041558	0.0052156	0.00617759999999999	0.00705119999999999	0.00782499999999999	0.00853439999999999	0.00919399999999999	0.00979219999999999
0.32	0.00162448	0.0031344	0.0044714	0.0056276	0.00666739999999999	0.00761559999999999	0.00845599999999999	0.00922699999999999	0.00992559999999999	0.0105776
0.325	0.00174038	0.003363	0.0048022	0.0060604	0.00717659999999999	0.00819999999999999	0.00911059999999999	0.00994899999999999	0.0106998	0.0114124
0.33	0.00185196	0.0035898	0.0051336	0.0064968	0.0076992	0.008798	0.0097752	0.0106796	0.0114994	0.0122618
0.335	0.0019669	0.00381360000000001	0.00546540000000001	0.00694080000000001	0.00822640000000001	0.00941460000000002	0.0104624	0.0114378	0.0123156	0.0131322
0.34	0.0020827	0.00404280000000001	0.00580860000000001	0.00738380000000001	0.00876180000000001	0.0100358	0.011167	0.0122254	0.0131538	0.0140426
0.345	0.00219018	0.00426900000000001	0.00615460000000001	0.00781480000000001	0.00930820000000001	0.0106554	0.0118752	0.0130114	0.0140054	0.0149586
0.35	0.00230068	0.00448860000000001	0.00649340000000001	0.00826040000000001	0.00986360000000001	0.011304	0.0126104	0.0138056	0.014877	0.0158868
0.355	0.0024158	0.0047154	0.006829	0.0087148	0.0104224	0.0119636	0.0133602	0.0146224	0.0157756	0.0168454
0.36	0.0025228	0.0049464	0.00716619999999999	0.00914999999999999	0.0109716	0.0126062	0.014084	0.0154408	0.0166846	0.0178026
0.365	0.0026216	0.0051666	0.00749559999999999	0.00958279999999999	0.0115044	0.0132558	0.0148098	0.0162482	0.0175864	0.0187526
0.37	0.0027182	0.0053772	0.00781419999999999	0.010018	0.0120322	0.0138984	0.0155568	0.0170562	0.0184774	0.019716
0.375	0.0028064	0.0055852	0.00812979999999999	0.0104342	0.012558	0.0145152	0.0162822	0.0178646	0.0193518	0.0206846
0.38	0.0028884	0.00577359999999999	0.00842639999999999	0.0108264	0.013061	0.015129	0.0169786	0.0186562	0.0202112	0.021614
0.385	0.002972	0.00593219999999999	0.00869439999999999	0.0112038	0.013553	0.0157166	0.0176608	0.0194416	0.021062	0.022524
0.39	0.0030528	0.00609479999999999	0.00895119999999999	0.0115754	0.0140492	0.0162678	0.0183204	0.020212	0.021888	0.023452
0.395	0.0031308	0.0062576	0.0091926	0.0119292	0.014497	0.0168066	0.01894	0.020932	0.02268	0.02435
0.4	0.00320220000000001	0.00638500000000001	0.00940020000000001	0.0122494	0.0148898	0.0173062	0.019534	0.021604	0.023458	0.025192
0.405	0.00325440000000001	0.00650280000000001	0.00959600000000001	0.0125444	0.0152742	0.017772	0.020114	0.022242	0.024208	0.02602
0.41	0.003296	0.00663440000000001	0.00979200000000001	0.0128174	0.015625	0.018232	0.02066	0.02284	0.024904	0.026818
0.415	0.003338	0.00673920000000001	0.00995760000000001	0.0130696	0.015928	0.018654	0.021172	0.023406	0.025586	0.027552
0.42	0.003366	0.0068104	0.0101046	0.0132924	0.016224	0.019032	0.021648	0.023964	0.026254	0.028246
0.425	0.0033818	0.0068894	0.0102556	0.0134704	0.016508	0.01938	0.02206	0.024508	0.02685	0.028898
0.43	0.003396	0.00694999999999999	0.0103738	0.013614	0.016732	0.019684	0.02242	0.02499	0.027376	0.029508
0.435	0.003408	0.00696879999999999	0.0104414	0.01374	0.016912	0.019938	0.022764	0.0254	0.027862	0.0301
0.44	0.003421	0.00698199999999999	0.01049	0.013846	0.01708	0.020144	0.023058	0.02577	0.028306	0.030642
0.445	0.0034272	0.00699319999999999	0.010515	0.013924	0.01721	0.020312	0.023294	0.026096	0.028708	0.031116
0.45	0.003422	0.00699019999999999	0.0105098	0.013978	0.01728	0.020464	0.0235	0.02637	0.029072	0.031544
0.455	0.0034094	0.0069866	0.010504	0.01401	0.017326	0.020578	0.023666	0.0266	0.029364	0.031912
0.46	0.003379	0.00697080000000001	0.010492	0.014018	0.017364	0.020654	0.023772	0.026776	0.029584	0.0322
0.465	0.0033516	0.00692580000000001	0.01046	0.013976	0.01735	0.020726	0.023832	0.0269	0.029756	0.0324580000000001
0.47	0.00334380000000001	0.00687520000000001	0.010414	0.013894	0.017306	0.020756	0.023872	0.026992	0.029878	0.0327060000000001
0.475	0.00332460000000001	0.00681960000000001	0.010352	0.013826	0.017278	0.020714	0.023882	0.027046	0.02997	0.0328740000000001
0.48	0.0032808	0.006755	0.010278	0.013762	0.017228	0.020626	0.023856	0.027054	0.030046	0.032966
0.485	0.0032404	0.00669559999999999	0.010208	0.013666	0.017128	0.020522	0.023804	0.027018	0.030096	0.033022
0.49	0.0031996	0.0066296	0.010116	0.013546	0.017014	0.020396	0.023712	0.02694	0.03009	0.033028
