|Vgs|	Gm_|Vds|=0.15V	Gm_|Vds|=0.3V	Gm_|Vds|=0.45V	Gm_|Vds|=0.6V	Gm_|Vds|=0.75V	Gm_|Vds|=0.9V
-0.3	3.15000000000007e-09	-4.1000000000001e-09	-9.08000000000017e-09	-2.86800000000003e-08	-1.48000000000065e-09	6.06800000000002e-08
-0.295	1.99000000000001e-09	-3.92500000000005e-09	-4.97333333333329e-09	-2.16033333333333e-08	-1.41633333333339e-08	3.71399999999999e-08
-0.29	9.89700000000008e-10	-1.75700000000002e-09	-3.37999999999998e-09	-1.316e-08	-8.52000000000033e-09	2.70859999999999e-08
-0.285	1.81799999999993e-10	-9.85000000000015e-10	-8.9399999999998e-10	-8.536e-09	-8.27800000000014e-09	2.05959999999998e-08
-0.28	-8.83999999999999e-10	2.79999999999986e-10	4.32e-10	-4.81200000000013e-09	-5.73999999999995e-09	1.73399999999999e-08
-0.275	-1.2009e-09	1.27700000000001e-09	1.65199999999999e-09	-3.28800000000011e-09	2.01800000000013e-09	2.18199999999998e-08
-0.27	-9.87799999999999e-10	1.06800000000001e-09	3.23599999999995e-09	-3.26200000000003e-09	6.86200000000007e-09	2.79539999999999e-08
-0.265	-1.3788e-09	1.14e-09	2.03199999999996e-09	-7.15999999999938e-10	8.33999999999999e-09	3.16479999999999e-08
-0.26	-1.8653e-09	1.80100000000001e-09	2.04000000000012e-10	5.4220000000001e-09	1.26479999999999e-08	3.5852e-08
-0.255	-1.716e-09	2.00700000000001e-09	8.59999999999981e-10	1.16360000000001e-08	1.66419999999999e-08	4.13760000000001e-08
-0.25	-1.8272e-09	2.34499999999999e-09	1.67999999999995e-09	1.67860000000001e-08	1.81319999999999e-08	4.72300000000002e-08
-0.245	-2.4084e-09	3.44199999999997e-09	2.906e-09	2.06e-08	2.12500000000001e-08	5.27100000000002e-08
-0.24	-2.5972e-09	4.88499999999998e-09	6.53200000000003e-09	1.86359999999999e-08	2.71520000000002e-08	5.699e-08
-0.235	-2.62750000000001e-09	6.00900000000003e-09	9.89400000000006e-09	1.43139999999999e-08	3.23220000000003e-08	6.18460000000002e-08
-0.23	-3.01160000000001e-09	6.72800000000003e-09	1.1702e-08	1.74439999999999e-08	3.50220000000002e-08	7.13380000000002e-08
-0.225	-3.44370000000001e-09	7.85200000000003e-09	1.4554e-08	2.3026e-08	3.97460000000002e-08	8.58100000000001e-08
-0.22	-3.98930000000001e-09	9.39200000000003e-09	1.7488e-08	2.65599999999999e-08	4.99300000000001e-08	1.00744e-07
-0.215	-4.65200000000001e-09	1.0397e-08	1.925e-08	3.41979999999999e-08	5.80120000000001e-08	1.1583e-07
-0.21	-5.2402e-09	1.1366e-08	2.1176e-08	4.2914e-08	6.20479999999999e-08	1.37236e-07
-0.205	-6.05099999999999e-09	1.2545e-08	2.351e-08	4.5814e-08	7.4624e-08	1.575e-07
-0.2	-6.94139999999999e-09	1.3237e-08	2.5566e-08	4.8504e-08	9.4394e-08	1.68654e-07
-0.195	-7.66549999999999e-09	1.3377e-08	2.7972e-08	5.56659999999999e-08	1.0814e-07	1.81392e-07
-0.19	-7.53879999999999e-09	1.368e-08	3.154e-08	6.45679999999999e-08	1.2079e-07	2.08318e-07
-0.185	-4.8569e-09	1.5383e-08	3.544e-08	7.29959999999999e-08	1.37616e-07	2.43828e-07
-0.18	-1.805e-10	1.9126e-08	3.99039999999999e-08	8.07319999999999e-08	1.53116e-07	2.79792e-07
-0.175	4.6973e-09	2.3888e-08	4.59959999999999e-08	9.06559999999999e-08	1.69034e-07	3.22984e-07
-0.17	1.01201e-08	2.8999e-08	5.3168e-08	1.02062e-07	1.895e-07	3.73072e-07
-0.165	1.58318e-08	3.4815e-08	6.1308e-08	1.12048e-07	2.14984e-07	4.21108e-07
-0.16	1.96742e-08	4.0267e-08	7.0788e-08	1.24736e-07	2.46778e-07	4.67878e-07
-0.155	2.19935e-08	4.49089999999999e-08	7.93959999999999e-08	1.42476e-07	2.8188e-07	5.20086e-07
-0.15	2.50901e-08	5.01819999999999e-08	8.72739999999999e-08	1.62712e-07	3.152e-07	5.79802e-07
-0.145	2.85045e-08	5.63379999999999e-08	9.86739999999999e-08	1.86372e-07	3.51516e-07	6.48585999999999e-07
-0.14	3.17664e-08	6.26449999999999e-08	1.14124e-07	2.14296e-07	3.95238e-07	7.24203999999999e-07
-0.135	3.62329e-08	6.9758e-08	1.31614e-07	2.45272e-07	4.4628e-07	8.07211999999999e-07
-0.13	4.13781e-08	7.8436e-08	1.51374e-07	2.79138e-07	5.0057e-07	9.07883999999999e-07
-0.125	4.64918e-08	8.83939999999999e-08	1.729e-07	3.15668e-07	5.59895999999999e-07	1.0296e-06
-0.12	5.29312e-08	1.00249e-07	1.94948e-07	3.55774e-07	6.32437999999999e-07	1.1618e-06
-0.115	6.05928999999999e-08	1.15049e-07	2.1883e-07	4.01776e-07	7.16801999999999e-07	1.3074e-06
-0.11	6.90430000000001e-08	1.31849e-07	2.46828e-07	4.52862000000001e-07	8.11734000000002e-07	1.4778e-06
-0.105	7.90860000000001e-08	1.49956e-07	2.79602e-07	5.07936000000001e-07	9.25374000000002e-07	1.6662e-06
-0.1	9.04140000000001e-08	1.7049e-07	3.17638e-07	5.71886000000001e-07	1.05416e-06	1.8732e-06
-0.095	1.03019e-07	1.9414e-07	3.61396e-07	6.49358000000001e-07	1.188822e-06	2.1116e-06
-0.09	1.17163e-07	2.20452e-07	4.09776e-07	7.38012000000001e-07	1.336962e-06	2.3774e-06
-0.085	1.3223e-07	2.5057e-07	4.62048e-07	8.37021999999999e-07	1.501508e-06	2.6692e-06
-0.08	1.49173e-07	2.85628e-07	5.20812e-07	9.49625999999999e-07	1.686588e-06	3.0048e-06
-0.075	1.6984e-07	3.24834e-07	5.89785999999999e-07	1.07436e-06	1.907078e-06	3.3852e-06
-0.07	1.93731e-07	3.68614e-07	6.69949999999999e-07	1.210348e-06	2.158918e-06	3.8044e-06
-0.0649999999999999	2.20261e-07	4.184e-07	7.62703999999999e-07	1.367276e-06	2.4354e-06	4.274e-06
-0.0599999999999999	2.50542e-07	4.74816e-07	8.68757999999999e-07	1.548878e-06	2.749e-06	4.8092e-06
-0.0549999999999999	2.8527e-07	5.38812e-07	9.88029999999999e-07	1.754098e-06	3.1104e-06	5.424e-06
-0.0499999999999999	3.23886000000001e-07	6.11682000000001e-07	1.120818e-06	1.987684e-06	3.51640000000001e-06	6.12120000000001e-06
-0.0449999999999999	3.67308000000002e-07	6.93728000000003e-07	1.26937200000001e-06	2.25264200000001e-06	3.96860000000002e-06	6.90400000000003e-06
-0.0399999999999999	4.17564000000002e-07	7.86692000000003e-07	1.43703400000001e-06	2.55229800000001e-06	4.48120000000002e-06	7.79120000000003e-06
-0.035	4.75350000000002e-07	8.94502000000003e-07	1.62680800000001e-06	2.89428800000001e-06	5.06260000000002e-06	8.78880000000003e-06
-0.03	5.41056000000001e-07	1.018172e-06	1.84363400000001e-06	3.27940000000001e-06	5.71560000000002e-06	9.89840000000003e-06
-0.025	6.15872000000001e-07	1.157536e-06	2.093264e-06	3.712e-06	6.45680000000001e-06	1.1153e-05
-0.02	7.00859999999999e-07	1.315708e-06	2.378506e-06	4.2054e-06	7.30439999999999e-06	1.2572e-05
-0.015	7.96711999999999e-07	1.496064e-06	2.700194e-06	4.7628e-06	8.26379999999999e-06	1.418e-05
-0.01	9.05391999999999e-07	1.699354e-06	3.063896e-06	5.39179999999999e-06	9.34979999999999e-06	1.6011e-05
-0.005	1.029766e-06	1.926538e-06	3.480854e-06	6.112e-06	1.0585e-05	1.8027e-05
-0	1.17144e-06	2.18519e-06	3.9548e-06	6.92859999999999e-06	1.19756e-05	2.0255e-05
0.005	1.332744e-06	2.48634e-06	4.4864e-06	7.84719999999999e-06	1.35364e-05	2.2814e-05
0.01	1.516678e-06	2.831682e-06	5.0886e-06	8.89539999999999e-06	1.5303e-05	2.57146e-05
0.015	1.72616e-06	3.222474e-06	5.77919999999999e-06	1.00812e-05	1.73026e-05	2.89882e-05
0.02	1.964796e-06	3.667972e-06	6.56019999999999e-06	1.14028e-05	1.94928e-05	3.27352e-05
0.025	2.234596e-06	4.173792e-06	7.43259999999999e-06	1.28978e-05	2.19274e-05	3.6986e-05
0.03	2.537454e-06	4.7414e-06	8.42559999999999e-06	1.46e-05	2.47488e-05	4.1756e-05
0.035	2.87739e-06	5.37239999999999e-06	9.55939999999999e-06	1.65274e-05	2.7925e-05	4.70429999999999e-05
0.04	3.268736e-06	6.08819999999999e-06	1.08434e-05	1.8685e-05	3.15198e-05	5.29669999999999e-05
0.045	3.720358e-06	6.91399999999999e-06	1.22912e-05	2.11046e-05	3.57282e-05	5.97109999999999e-05
0.05	4.234274e-06	7.85919999999999e-06	1.39402e-05	2.387e-05	4.05428e-05	6.73149999999999e-05
0.055	4.8166e-06	8.92979999999999e-06	1.58382e-05	2.70196e-05	4.5895e-05	7.59019999999999e-05
0.0600000000000001	5.48079999999999e-06	1.01566e-05	1.79988e-05	3.06246e-05	5.1904e-05	8.55829999999999e-05
0.0650000000000001	6.24079999999999e-06	1.15546e-05	2.03982e-05	3.4774e-05	5.8622e-05	9.62869999999999e-05
0.0700000000000001	7.10099999999999e-06	1.31252e-05	2.30808e-05	3.94982e-05	6.61219999999999e-05	0.000108373
0.0750000000000001	8.07180000000002e-06	1.48954e-05	2.61354000000001e-05	4.48210000000001e-05	7.44950000000002e-05	0.000122127
0.0800000000000001	9.17960000000004e-06	1.69096000000001e-05	2.96108000000001e-05	5.08220000000002e-05	8.39020000000004e-05	0.000137400000000001
0.0850000000000001	1.0441e-05	1.91786000000001e-05	3.35524000000001e-05	5.75010000000002e-05	9.47020000000004e-05	0.000154547000000001
0.09	1.18632e-05	2.17286000000001e-05	3.80856000000001e-05	6.49400000000002e-05	0.000107041	0.000174153000000001
0.095	1.34756e-05	2.46622000000001e-05	4.32906000000001e-05	7.33960000000002e-05	0.000120861	0.000196179000000001
0.1	1.53124e-05	2.80338e-05	4.9154e-05	8.29450000000001e-05	0.000136439	0.000220634
0.105	1.74044e-05	3.18536e-05	5.5728e-05	9.37399999999999e-05	0.000154167	0.000247934
0.11	1.97578e-05	3.6208e-05	6.3176e-05	0.000106059	0.000173915	0.000278564
0.115	2.23668e-05	4.1176e-05	7.16219999999999e-05	0.000119989	0.00019581	0.000312529
0.12	2.53488e-05	4.6765e-05	8.10869999999999e-05	0.000135631	0.000220586	0.000350112
0.125	2.8811e-05	5.3052e-05	9.17809999999999e-05	0.000153248	0.000248606	0.000392679
0.13	3.27554e-05	6.01639999999999e-05	0.000103946	0.000172995	0.000279751	0.00044114
0.135	3.72382e-05	6.82219999999999e-05	0.000117669	0.000195235	0.000314691	0.00049518
0.14	4.23672e-05	7.74029999999999e-05	0.000133193	0.00022048	0.000354311	0.000555339999999999
0.145	4.8179e-05	8.77759999999999e-05	0.000150685	0.000248592	0.000398324	0.000622699999999999
0.15	5.4642e-05	9.93109999999999e-05	0.000170035	0.000279652	0.00044704	0.000696779999999999
0.155	6.1916e-05	0.000112499	0.000191891	0.000315017	0.00050186	0.000778979999999999
0.16	7.0265e-05	0.00012757	0.000217085	0.000355055	0.00056306	0.000870959999999999
0.165	7.97369999999999e-05	0.000144337	0.000245591	0.000399784	0.00063142	0.000973239999999999
0.17	9.03269999999999e-05	0.000163338	0.000277455	0.00045038	0.000708399999999999	0.0010868
0.175	0.000102477	0.0001851	0.000313666	0.0005074	0.000794759999999999	0.00121284
0.18	0.000116345	0.000209587	0.000354387	0.000570899999999999	0.000890899999999999	0.00135208
0.185	0.000131728	0.000237056	0.000399178	0.000641659999999999	0.000998239999999999	0.0015072
0.19	0.000149021	0.000267845	0.00044916	0.000720979999999999	0.0011173	0.00167892
0.195	0.000168763	0.000302539	0.00050602	0.000809459999999999	0.0012482	0.00186346
0.2	0.000190951	0.000342089000000001	0.000570000000000001	0.000907900000000002	0.00139262	0.00206624
0.205	0.000215994000000001	0.000386535000000002	0.000641420000000003	0.00101802	0.00155324000000001	0.00229538000000001
0.21	0.000244614000000001	0.000435991000000002	0.000721520000000003	0.00114008	0.00173180000000001	0.00254804000000001
0.215	0.000276678000000001	0.000491960000000002	0.000811300000000003	0.00127512	0.00192658000000001	0.00282398000000001
0.22	0.000312527000000001	0.000554640000000002	0.000911680000000003	0.0014259	0.00214028000000001	0.00313264000000001
0.225	0.000353314	0.000624100000000001	0.00102316	0.00159442	0.00237982	0.00347188
0.23	0.00039896	0.000702159999999999	0.00114646	0.0017804	0.00264358	0.0038338
0.235	0.00044968	0.000790059999999999	0.00128388	0.00198184	0.00293236	0.0042274
0.24	0.00050654	0.000888059999999999	0.00143702	0.00220208	0.00325384	0.0046572
0.245	0.000570299999999999	0.000997199999999999	0.00160724	0.0024473	0.00360588	0.0051208
0.25	0.000641619999999999	0.00111896	0.0017956	0.00271936	0.003985	0.0056214
0.255	0.000721439999999999	0.00125482	0.00200048	0.00302042	0.004398	0.00616459999999999
0.26	0.000811019999999999	0.0014062	0.00222532	0.0033537	0.004847	0.00675499999999999
0.265	0.000911899999999999	0.0015743	0.0024773	0.0037201	0.0053312	0.00739419999999999
0.27	0.00102454	0.00175972	0.00275482	0.0041174	0.005858	0.00807759999999999
0.275	0.00114936	0.00196272	0.0030597	0.0045474	0.0064292	0.00880099999999999
0.28	0.00128834	0.00218538	0.00339748	0.0050146	0.00704599999999999	0.00956939999999999
0.285	0.0014429	0.00243268	0.00376864	0.0055226	0.00771019999999999	0.0103908
0.29	0.00161288	0.00270742	0.004175	0.00606379999999999	0.00841799999999999	0.0112582
0.295	0.00179976	0.00301126	0.004618	0.00664259999999999	0.00917139999999999	0.012176
0.3	0.00200306	0.00334716	0.005096	0.00727799999999999	0.00997099999999999	0.0131546
0.305	0.00222404	0.00371724	0.0056092	0.00796559999999999	0.0108154	0.014183
0.31	0.00247142	0.0041194	0.00616099999999999	0.00870079999999999	0.0117098	0.0152512
0.315	0.00275092	0.0045504	0.00675679999999999	0.00949379999999999	0.0126636	0.0163794
0.32	0.00305924	0.0050178	0.00739979999999999	0.0103414	0.013682	0.0175692
0.325	0.00339566000000001	0.00553020000000001	0.00808720000000001	0.011221	0.0147616	0.0187988
0.33	0.00376668000000002	0.00608460000000003	0.00882620000000004	0.0121354	0.0158848000000001	0.0200802000000001
0.335	0.00417080000000002	0.00668200000000002	0.00963340000000003	0.0131102	0.0170548000000001	0.0214156000000001
0.34	0.00459940000000001	0.00732320000000002	0.0104932	0.014144	0.0182788000000001	0.0227954000000001
0.345	0.00505760000000001	0.00800320000000002	0.011381	0.0152228	0.0195314000000001	0.0242100000000001
0.35	0.00555680000000001	0.00872620000000001	0.0123182	0.016348	0.0208086	0.025658
0.355	0.00609559999999999	0.00950099999999999	0.0133208	0.0175324	0.022146	0.027148
0.36	0.00666839999999999	0.0103258	0.0143566	0.0187676	0.023544	0.028666
0.365	0.00728419999999999	0.011197	0.0154284	0.0200404	0.02497	0.030172
0.37	0.007952	0.0121232	0.0165714	0.0213506	0.026422	0.0317
0.375	0.00866459999999999	0.0131022	0.0177688	0.0227048	0.027922	0.033292
0.38	0.00941519999999999	0.0141224	0.0189918	0.0241038	0.029454	0.034898
0.385	0.010201	0.0151932	0.0202578	0.02555	0.030988	0.03651
0.39	0.0110222	0.0163136	0.021575	0.027036	0.032554	0.038158
0.395	0.0118948	0.0174632	0.0229274	0.028534	0.034152	0.039812
0.4	0.0128144	0.018639	0.024318	0.03004	0.035734	0.041442
0.405	0.0137568	0.0198656	0.025754	0.031566	0.037318	0.04308
0.41	0.0147356	0.0211306	0.02721	0.03311	0.03893	0.044736
0.415	0.015757	0.0224168	0.028686	0.03467	0.040548	0.046378
0.42	0.0167922	0.0237626	0.03019	0.036246	0.042164	0.047994
0.425	0.01785	0.0251640000000001	0.0316860000000001	0.0378460000000001	0.0437840000000001	0.0496040000000001
0.43	0.0189572	0.026566	0.0331820000000001	0.0394500000000001	0.0454160000000001	0.0511920000000001
0.435	0.0201036	0.027978	0.03471	0.0410280000000001	0.0470280000000001	0.0527620000000001
0.44	0.0212718	0.029408	0.036226	0.0425920000000001	0.0486140000000001	0.0543400000000001
0.445	0.022456	0.030818	0.037728	0.044174	0.050212	0.055886
0.45	0.023642	0.032246	0.03927	0.04578	0.051786	0.0573839999999999
0.455	0.024826	0.033716	0.04081	0.047364	0.05331	0.0589079999999999
0.46	0.02601	0.035198	0.042336	0.048914	0.054842	0.0604259999999999
0.465	0.02719	0.036702	0.043894	0.050438	0.0563559999999999	0.0618499999999999
0.47	0.028376	0.038202	0.045462	0.051942	0.0577979999999999	0.063274
0.475	0.02957	0.039646	0.046988	0.0534419999999999	0.059244	0.064682
0.48	0.030756	0.041048	0.048462	0.05489	0.060648	0.065972
0.485	0.03191	0.0424180000000001	0.0499060000000001	0.0562860000000001	0.0619720000000001	0.0672180000000001
0.49	0.033026	0.043784	0.0513320000000001	0.0577040000000001	0.0633140000000001	0.0684660000000001
0.495	0.034116	0.0451660000000001	0.0527200000000001	0.0591000000000001	0.0646420000000001	0.0696860000000001
0.5	0.035172	0.0465240000000001	0.0540980000000001	0.0604200000000001	0.0659160000000001	0.0709040000000001
0.505	0.03618	0.047896	0.055476	0.061752	0.067212	0.072142
0.51	0.037154	0.049272	0.0567899999999999	0.063094	0.0684839999999999	0.073278
0.515	0.038134	0.050544	0.0580719999999999	0.0643619999999999	0.0696639999999999	0.074346
0.52	0.03909	0.051774	0.05937	0.0655639999999999	0.0708459999999999	0.0751839999999999
0.525	0.039972	0.05302	0.060646	0.0666919999999999	0.0719999999999999	0.0756599999999999
0.53	0.04084	0.054192	0.061888	0.0677679999999999	0.0730579999999999	0.0762439999999999
0.535	0.041702	0.055346	0.063084	0.0688159999999999	0.0738439999999999	0.0771159999999999
0.54	0.042458	0.0565239999999999	0.064194	0.0698459999999999	0.0743559999999999	0.0780899999999999
0.545	0.043096	0.057614	0.0652479999999999	0.0709139999999999	0.0750319999999999	0.0792539999999999
0.55	0.04368	0.0586320000000001	0.0662820000000001	0.0720140000000001	0.0759540000000001	0.0806420000000001
0.555	0.0442080000000001	0.0596460000000001	0.0672840000000001	0.0727940000000001	0.0768440000000001	0.0818000000000001
0.56	0.0447000000000001	0.0606060000000001	0.0682760000000001	0.0732460000000001	0.0778820000000001	0.0826200000000001
0.565	0.0451860000000001	0.0615260000000001	0.0692860000000001	0.0739300000000001	0.0791760000000001	0.0833400000000001
0.57	0.0456120000000001	0.0624680000000001	0.0702400000000001	0.0747940000000001	0.0802000000000001	0.0840400000000001
0.575	0.045986	0.0633819999999999	0.071094	0.0756039999999999	0.08088	0.0846999999999999
0.58	0.04633	0.0642399999999999	0.0717259999999999	0.0766819999999999	0.08156	0.0852999999999999
0.585	0.046544	0.0650079999999999	0.0721099999999999	0.0779359999999999	0.08224	0.0858799999999999
0.59	0.04664	0.0657319999999999	0.072654	0.0788399999999999	0.08288	0.0863999999999999
0.595	0.04675	0.066468	0.073402	0.0795399999999999	0.08356	0.08688
0.6	0.04688	0.06716	0.0741579999999999	0.0802999999999999	0.0842599999999999	0.0874799999999999
0.605	0.0469200000000001	0.0675300000000001	0.0751140000000001	0.0810200000000001	0.0849000000000001	0.0881800000000001
0.61	0.04689	0.0676740000000001	0.0762600000000001	0.0817000000000001	0.0855400000000001	0.0888200000000001
0.615	0.046814	0.0680800000000001	0.0771800000000001	0.0823600000000001	0.0861400000000001	0.0893600000000001
0.62	0.0466620000000001	0.0685840000000001	0.0778800000000001	0.0830000000000001	0.0866400000000001	0.0898000000000001
0.625	0.0464600000000001	0.0689960000000001	0.0785400000000001	0.0835000000000001	0.0870800000000001	0.0901000000000001
0.63	0.0462	0.0697359999999999	0.0790599999999999	0.0838799999999999	0.0874999999999999	0.09034
0.635	0.045894	0.0707139999999999	0.07948	0.0843399999999999	0.0879399999999999	0.09066
0.64	0.04559	0.0712599999999999	0.0799	0.0848399999999999	0.0883999999999999	0.0910799999999999
0.645	0.04528	0.0715399999999999	0.0802999999999999	0.0852999999999998	0.0888599999999999	0.0914999999999999
0.65	0.044882	0.07192	0.0806599999999999	0.0857799999999999	0.0892799999999999	0.0917999999999999
0.655	0.0444399999999999	0.07216	0.0810999999999999	0.08624	0.08966	0.0920599999999999
0.66	0.0440339999999999	0.0722599999999999	0.0816399999999999	0.08664	0.09	0.0923399999999999
0.665	0.043596	0.0724599999999999	0.0820999999999999	0.08704	0.0902399999999999	0.0925999999999999
0.67	0.043008	0.0725999999999999	0.0823599999999999	0.0872599999999999	0.0903199999999999	0.0928
0.675	0.042386	0.0726399999999999	0.0825799999999999	0.0873999999999999	0.0904999999999999	0.09304
0.68	0.041582	0.0726999999999999	0.0828399999999999	0.0876799999999999	0.0908399999999999	0.0932799999999999
0.685	0.0405280000000001	0.0727400000000001	0.0830800000000001	0.0879200000000001	0.0911200000000001	0.0934200000000001
0.69	0.039694	0.0727400000000001	0.0833000000000001	0.0881600000000001	0.0914200000000002	0.0935000000000001
0.695	0.03915	0.0727400000000001	0.0836600000000001	0.0885600000000001	0.0918000000000002	0.0936200000000001
0.7	0.038572	0.0726400000000001	0.0840400000000001	0.0888200000000002	0.0919600000000001	0.0937600000000001
0.705	0.03807	0.0723800000000001	0.0841800000000001	0.0889400000000001	0.0919800000000001	0.0939000000000002
0.71	0.037834	0.0721399999999999	0.0842399999999999	0.0892399999999999	0.0920999999999999	0.09412
0.715	0.03744	0.0719799999999999	0.08432	0.0894599999999999	0.0920799999999998	0.0943
0.72	0.0367800000000001	0.0718400000000001	0.0844000000000001	0.0895200000000001	0.0921000000000001	0.0944000000000001
0.725	0.03616	0.0716200000000001	0.0844800000000001	0.0896800000000001	0.0924600000000001	0.0945000000000001
0.73	0.03562	0.0713600000000001	0.0846000000000001	0.0898200000000002	0.0927800000000001	0.0945600000000001
0.735	0.0349800000000001	0.0710400000000002	0.0847200000000001	0.0898800000000002	0.0928200000000001	0.0945000000000001
