Vds	Gm_Vgs=0.15V	Gm_Vgs=0.3V	Gm_Vgs=0.45V	Gm_Vgs=0.6V	Gm_Vgs=0.75V	Gm_Vgs=0.9V
0	0.000300888	0.01715294	0.1265732	0.213252	0.239816	0.252028
0.005	0.000281582	0.01719416	0.128475466666667	0.211606	0.238805	0.250703333333333
0.01	0.0002532702	0.016090536	0.12797328	0.2098832	0.2376092	0.2495736
0.015	0.0002282896	0.015107948	0.12670864	0.2081068	0.236552	0.248558
0.02	0.0002022834	0.013867167	0.12439866	0.2063654	0.2356994	0.2479202
0.025	0.000179469	0.01249284	0.120706	0.2046336	0.2349202	0.2475436
0.03	0.000160369	0.01128	0.116306	0.202782	0.234212	0.24724
0.035	0.000144435	0.0102802	0.112038	0.20095	0.23377	0.247212
0.04	0.000131033	0.0093978	0.107842	0.199084	0.233338	0.247284
0.045	0.000120381	0.0086092	0.103542	0.197244	0.232614	0.24713
0.05	0.000112213	0.007913	0.09928	0.195462	0.23178	0.24684
0.055	0.000104274	0.0073042	0.09512	0.193448	0.230892	0.246436
0.06	9.6704e-05	0.0067734	0.091054	0.191254	0.229904	0.24588
0.065	9.0219e-05	0.0063086	0.086984	0.188806	0.22863	0.245018
0.07	8.3977e-05	0.0059052	0.082932	0.186206	0.22748	0.24418
0.075	7.84200000000001e-05	0.0055538	0.07902	0.183668	0.22668	0.24362
0.08	7.5104e-05	0.0052376	0.075248	0.18112	0.2257	0.24316
0.085	7.2922e-05	0.0049624	0.071564	0.17858	0.22454	0.24276
0.09	7.0832e-05	0.0047274	0.06804	0.17624	0.22366	0.2425
0.095	6.9202e-05	0.0045172	0.064742	0.17382	0.22282	0.2422
0.1	6.828e-05	0.004332	0.061602	0.17106	0.22164	0.24174
0.105	6.756e-05	0.0041822	0.058552	0.16834	0.22054	0.24132
0.11	6.616e-05	0.0040524	0.055574	0.16574	0.2196	0.24082
0.115	6.476e-05	0.0039244	0.052784	0.16298	0.21848	0.24014
0.12	6.332e-05	0.0038088	0.050092	0.15988	0.217	0.23934
0.125	6.14599999999999e-05	0.0036978	0.047586	0.15676	0.2155	0.2387
0.13	5.936e-05	0.0035788	0.045358	0.15376	0.21416	0.238
0.135	5.818e-05	0.0034876	0.043074	0.15064	0.21278	0.2372
0.14	5.878e-05	0.0034254	0.040864	0.14748	0.2114	0.23676
0.145	5.888e-05	0.0033588	0.038992	0.14452	0.21024	0.23642
0.15	5.788e-05	0.003308	0.037058	0.14152	0.20906	0.2357
0.155	5.842e-05	0.0032778	0.035012	0.13826	0.2076	0.235
0.16	8.63000000000001e-05	0.00323	0.03334	0.13504	0.20612	0.23454
0.165	0.00011174	0.003213	0.03188	0.13186	0.20468	0.23382
0.17	8.40200000000001e-05	0.0031862	0.03042	0.12856	0.20312	0.23302
0.175	5.83600000000002e-05	0.0031158	0.02908	0.12518	0.2013	0.23218
0.18	5.81000000000002e-05	0.0031336	0.02794	0.12182	0.19954	0.2313
0.185	3.01400000000001e-05	0.0031572	0.02698	0.11842	0.19788	0.23052
0.19	3.58000000000002e-06	0.0030546	0.026	0.115	0.1961	0.22974
0.195	3.06000000000001e-05	0.0030052	0.02496	0.11166	0.1943	0.22894
0.2	5.57600000000001e-05	0.003068	0.02406	0.10842	0.19264	0.22832
0.205	5.434e-05	0.003034	0.02324	0.10522	0.19098	0.22768
0.21	5.528e-05	0.002968	0.0223	0.10198	0.18912	0.22676
0.215	5.67999999999999e-05	0.003	0.02152	0.09872	0.18722	0.22588
0.22	5.65399999999999e-05	0.00299	0.02104	0.0955	0.18534	0.22506
0.225	5.68199999999999e-05	0.002888	0.02058	0.09234	0.18342	0.22418
0.23	5.93999999999999e-05	0.00282	0.0201	0.0891000000000001	0.18124	0.22308
0.235	6.068e-05	0.002812	0.01962	0.0859200000000001	0.17898	0.22198
0.24	6.014e-05	0.002844	0.01898	0.08284	0.17676	0.22098
0.245	6.166e-05	0.002922	0.01836	0.0796999999999999	0.17442	0.2199
0.25	6.382e-05	0.00298	0.01808	0.07662	0.17216	0.21876
0.255	6.34599999999999e-05	0.003002	0.0179	0.0737199999999999	0.17004	0.21778
0.26	6.22599999999999e-05	0.002994	0.01768	0.0709199999999999	0.1678	0.21688
0.265	6.206e-05	0.002918	0.01756	0.06834	0.16542	0.21576
0.27	6.19000000000001e-05	0.002866	0.01724	0.0660200000000001	0.16306	0.21458
0.275	6.10400000000001e-05	0.0029	0.01678	0.0636200000000001	0.16058	0.21348
0.28	6.10200000000001e-05	0.002892	0.0165800000000001	0.0612000000000002	0.15806	0.2124
0.285	6.09000000000001e-05	0.00285000000000001	0.01652	0.0588600000000001	0.1555	0.21104
0.29	6.05800000000001e-05	0.00283600000000001	0.0164	0.05642	0.15284	0.209640000000001
0.295	6.24e-05	0.002784	0.01638	0.05398	0.15022	0.20848
0.3	6.45999999999999e-05	0.002786	0.01644	0.0517399999999999	0.1476	0.20728
0.305	6.46799999999999e-05	0.002898	0.0163199999999999	0.0496999999999998	0.1449	0.20584
0.31	6.498e-05	0.002996	0.01616	0.0478799999999999	0.1423	0.20444
0.315	6.612e-05	0.00306	0.0161	0.04624	0.13972	0.20322
0.32	6.6e-05	0.003096	0.0158	0.04464	0.13686	0.20184
0.325	6.552e-05	0.003038	0.01516	0.0431999999999999	0.13394	0.20026
0.33	6.534e-05	0.002946	0.01468	0.04184	0.13106	0.19876
0.335	6.53000000000001e-05	0.002876	0.0146	0.0403200000000001	0.12802	0.1974
0.34	6.55e-05	0.00282400000000001	0.01472	0.0389400000000001	0.12492	0.19592
0.345	6.542e-05	0.002864	0.015	0.0379000000000001	0.12208	0.19438
0.35	6.54000000000001e-05	0.002892	0.01532	0.0369000000000002	0.11948	0.19282
0.355	6.55e-05	0.00288	0.01538	0.0358200000000001	0.11676	0.19112
0.36	6.67799999999999e-05	0.00296	0.0151600000000001	0.03476	0.1137	0.18936
0.365	6.85e-05	0.00302999999999999	0.01454	0.0337	0.1106	0.18752
0.37	6.858e-05	0.002994	0.0139	0.0328399999999999	0.10764	0.1856
0.375	6.936e-05	0.003014	0.01384	0.0321199999999999	0.1045	0.18384
0.38	7.062e-05	0.003082	0.01386	0.03134	0.10134	0.18214
0.385	6.902e-05	0.00306	0.0135999999999999	0.03072	0.0986199999999999	0.18032
0.39	6.724e-05	0.003052	0.0134999999999999	0.0301999999999999	0.0961599999999999	0.17854
0.395	6.946e-05	0.003078	0.01338	0.02928	0.09352	0.1767
0.4	7.18200000000001e-05	0.003012	0.01304	0.0283	0.0907800000000002	0.17472
0.405	7.22800000000002e-05	0.002936	0.0128800000000001	0.0278599999999999	0.0881400000000003	0.17274
0.41	7.32800000000001e-05	0.00299	0.0128800000000001	0.0274	0.0855200000000003	0.1707
0.415	7.40800000000001e-05	0.00301	0.0132000000000001	0.02694	0.0828600000000001	0.16858
0.42	7.366e-05	0.002968	0.01362	0.027	0.08016	0.1665
0.425	7.12799999999999e-05	0.003056	0.0134399999999999	0.02698	0.0775599999999999	0.1644
0.43	6.99799999999998e-05	0.003154	0.0131599999999999	0.0264600000000001	0.0751399999999999	0.16224
0.435	7.30399999999998e-05	0.003116	0.01316	0.0261000000000001	0.0727199999999998	0.16002
0.44	7.48999999999999e-05	0.0031	0.01314	0.0258	0.07026	0.1577
0.445	7.22e-05	0.00315	0.01342	0.0251399999999999	0.0680400000000001	0.15538
0.45	7.186e-05	0.003134	0.0138800000000001	0.0245799999999999	0.06596	0.15306
0.455	7.43800000000001e-05	0.00305800000000001	0.0139600000000001	0.0243399999999999	0.06382	0.15072
0.46	7.27000000000002e-05	0.003002	0.01388	0.02416	0.0618200000000002	0.14166
0.465	7.10400000000002e-05	0.00298	0.0137	0.0239400000000001	0.0598400000000001	0.1189
0.47	7.46200000000001e-05	0.00300200000000001	0.01324	0.0236200000000001	0.0577000000000001	0.0890400000000001
0.475	7.83000000000001e-05	0.00308800000000001	0.013	0.0232200000000002	0.0556400000000001	0.0593000000000001
0.48	8e-05	0.003174	0.01308	0.0229200000000001	0.0537599999999999	0.03006
0.485	8.17199999999999e-05	0.00322799999999999	0.01312	0.0227	0.0519599999999997	0.00810000000000004
0.49	8.228e-05	0.00328	0.0131	0.02254	0.0502999999999998	0.000320000000000042
0.495	7.842e-05	0.00326399999999999	0.01302	0.0224999999999999	0.0487999999999999	0
0.5	7.656e-05	0.00315399999999999	0.0129	0.0222999999999999	0.04752	4.000000000004e-05
0.505	7.948e-05	0.00311799999999999	0.01294	0.0219199999999999	0.04638	8.00000000000799e-05
0.51	7.88599999999999e-05	0.003178	0.01292	0.0217399999999999	0.04526	4.000000000004e-05
0.515	7.85199999999999e-05	0.003224	0.0127	0.0215999999999999	0.04428	0
0.52	8.15799999999999e-05	0.00326399999999999	0.01272	0.02146	0.0431199999999999	2.000000000002e-05
0.525	7.93199999999998e-05	0.003264	0.0128	0.02146	0.04162	0
0.53	7.37599999999998e-05	0.003212	0.0126200000000001	0.02148	0.04018	-4.000000000004e-05
0.535	7.696e-05	0.003196	0.01262	0.02142	0.0389	-2.000000000002e-05
0.54	8.424e-05	0.003216	0.01278	0.0212000000000001	0.0378399999999999	0
0.545	8.76399999999999e-05	0.003234	0.01276	0.02086	0.0373599999999999	0
0.55	9.08000000000001e-05	0.00328000000000001	0.01282	0.0208600000000001	0.0371399999999999	2.00000000000202e-05
0.555	9.43000000000004e-05	0.00334600000000002	0.0128400000000001	0.0210200000000001	0.03646	4.00000000000402e-05
0.56	9.43000000000003e-05	0.00335200000000002	0.0127000000000001	0.02076	0.0356600000000001	2.00000000000202e-05
0.565	9.05000000000003e-05	0.00326800000000001	0.01266	0.0203799999999999	0.0351000000000003	-2.00000000000198e-05
0.57	8.82000000000003e-05	0.00321600000000001	0.01262	0.02028	0.0340600000000003	-8.00000000000797e-05
0.575	8.91200000000001e-05	0.00327000000000001	0.01244	0.0202399999999999	0.0328600000000003	-8.00000000000799e-05
0.58	9.24199999999999e-05	0.003292	0.01236	0.02016	0.0325600000000002	-2.000000000002e-05
0.585	9.82799999999999e-05	0.00328999999999999	0.0124799999999999	0.0203400000000001	0.0323000000000002	-2.000000000002e-05
0.59	0.00010306	0.003374	0.0126799999999999	0.0205000000000001	0.0315200000000001	-6.7762635780344e-21
0.595	0.0001053	0.00342	0.01276	0.0203400000000001	0.0311599999999999	8.00000000000799e-05
0.6	0.00010702	0.003392	0.01266	0.0201200000000001	0.0308999999999999	8.00000000000799e-05
0.605	0.00010698	0.0034	0.01266	0.01986	0.03032	0
0.61	0.00010438	0.00341	0.01268	0.0194999999999999	0.0300799999999999	0
0.615	0.00010164	0.003422	0.0125800000000001	0.0194199999999999	0.02996	4.000000000004e-05
0.62	0.00010078	0.00344999999999999	0.0123800000000001	0.0194599999999999	0.0297000000000001	0
0.625	0.00010062	0.00337199999999999	0.01222	0.01928	0.0293799999999999	-8.00000000000799e-05
0.63	9.97599999999999e-05	0.00330399999999999	0.01234	0.01914	0.0286999999999997	-8.00000000000799e-05
0.635	9.856e-05	0.00338799999999999	0.0123	0.0189400000000001	0.0277999999999997	-2.000000000002e-05
0.64	9.85599999999999e-05	0.00345	0.0121	0.01852	0.0270399999999998	-4.000000000004e-05
0.645	0.00010094	0.00342	0.01234	0.0184599999999999	0.0266199999999998	-6.000000000006e-05
0.65	0.0001047	0.003452	0.01246	0.0187599999999999	0.02666	2.000000000002e-05
0.655	0.00010646	0.00353400000000001	0.01208	0.01894	0.0268200000000002	6.000000000006e-05
0.66	0.00010542	0.00352400000000001	0.01212	0.01926	0.0268800000000001	0
0.665	0.00010516	0.003476	0.01232	0.01954	0.0268799999999999	-2.000000000002e-05
0.67	0.00010644	0.003494	0.0121999999999999	0.0194	0.0265199999999999	0
0.675	0.00010602	0.00356800000000001	0.01252	0.01916	0.0257599999999998	-2.000000000002e-05
0.68	0.00010498	0.00358800000000001	0.0128	0.0189399999999999	0.0251999999999999	-6.00000000000602e-05
0.685	0.00010752	0.00354800000000001	0.0125800000000001	0.0185399999999999	0.02498	-8.00000000000802e-05
0.69	0.00011176	0.00356200000000001	0.0125000000000001	0.0183400000000001	0.0248000000000001	-6.00000000000602e-05
0.695	0.00011306	0.00361600000000001	0.0124000000000001	0.0182600000000001	0.0248000000000002	-2.00000000000202e-05
0.7	0.0001132	0.003648	0.0121200000000001	0.0178	0.0248400000000003	2.00000000000198e-05
0.705	0.0001142	0.00365	0.0122	0.01762	0.0247400000000003	6.000000000006e-05
0.71	0.00011384	0.00364	0.01238	0.0180600000000001	0.0247200000000001	0.0001000000000001
0.715	0.00011512	0.003664	0.01238	0.01866	0.0247	0.0001000000000001
0.72	0.0001168	0.003706	0.01262	0.0193199999999999	0.0245199999999999	6.000000000006e-05
0.725	0.0001162	0.003692	0.0128	0.01998	0.0243799999999999	2.000000000002e-05
0.73	0.00011952	0.003672	0.01258	0.0197399999999999	0.0241799999999999	-2.000000000002e-05
0.735	0.00012344	0.00372399999999999	0.01248	0.0186199999999999	0.0237399999999999	-4.000000000004e-05
0.74	0.00012042	0.00375	0.0126	0.0178999999999999	0.02358	-4.000000000004e-05
0.745	0.00011874	0.003724	0.01248	0.01752	0.0239600000000001	-2.000000000002e-05
0.75	0.00012108	0.00373	0.01214	0.01716	0.0239599999999999	0
0.755	0.00012506	0.003752	0.01192	0.0172	0.0233399999999999	0
0.76	0.00013066	0.003746	0.01198	0.01746	0.02296	2.000000000002e-05
0.765	0.0001292	0.003698	0.01216	0.01734	0.02252	4.000000000004e-05
0.77	0.0001251	0.00370599999999999	0.01232	0.0172200000000001	0.0215999999999998	0
0.775	0.00012556	0.003824	0.01256	0.0172800000000001	0.0213799999999999	-4.000000000004e-05
0.78	0.00012258	0.003946	0.0129	0.01758	0.0221	-2.000000000002e-05
0.785	0.00011868	0.004002	0.01304	0.0183	0.02238	0
0.79	0.00012336	0.004032	0.0128799999999999	0.0185200000000001	0.0222600000000002	0
0.795	0.00012956	0.004046	0.0128	0.01808	0.0224400000000002	-2.000000000002e-05
0.8	0.00013174	0.004008	0.0129200000000001	0.018	0.02242	-2.00000000000202e-05
0.805	0.000130420000000001	0.00395600000000001	0.0128200000000001	0.0183200000000001	0.02194	2.00000000000202e-05
0.81	0.000129020000000001	0.00393800000000001	0.0125600000000001	0.0180600000000002	0.0217600000000001	2.00000000000202e-05
0.815	0.00013318	0.00399600000000001	0.0126000000000001	0.0177400000000001	0.0219799999999999	2.20228566286118e-19
0.82	0.00013494	0.00406000000000001	0.0127000000000001	0.0178200000000001	0.0218199999999998	2.00000000000202e-05
0.825	0.00013284	0.00406800000000001	0.0127	0.0177200000000001	0.0216200000000001	2.00000000000204e-05
0.83	0.00013484	0.00411799999999999	0.0130599999999999	0.0176199999999999	0.0218000000000003	-2.000000000002e-05
0.835	0.00013738	0.004224	0.0135199999999999	0.0178599999999999	0.0217400000000002	-4.000000000004e-05
0.84	0.00013912	0.004284	0.01354	0.0183199999999999	0.0214400000000002	-2.000000000002e-05
0.845	0.0001444	0.00429999999999999	0.01358	0.0187799999999998	0.0213400000000001	2.000000000002e-05
0.85	0.00014744	0.004402	0.01378	0.0189599999999999	0.0213799999999999	4.000000000004e-05
0.855	0.00014576	0.004518	0.0137	0.01862	0.0212399999999997	4.000000000004e-05
0.86	0.00014406	0.004504	0.0135	0.01824	0.0207799999999998	4.000000000004e-05
0.865	0.00014058	0.004522	0.01356	0.01808	0.0205000000000001	2.000000000002e-05
0.87	0.0001394	0.004686	0.01364	0.0181	0.0206200000000002	-2.000000000002e-05
0.875	0.00014566	0.004772	0.01356	0.01838	0.0205400000000001	-2.000000000002e-05
0.88	0.00015098	0.004726	0.0138	0.0186	0.0204800000000001	0
0.885	0.00015258	0.00479399999999999	0.01436	0.0187	0.0209999999999999	-2.000000000002e-05
0.89	0.00015448	0.00490599999999999	0.01482	0.01874	0.0213799999999996	-6.000000000006e-05
0.895	0.000148433333333333	0.00480999999999999	0.0154999999999999	0.0181333333333334	0.0211666666666663	-6.66666666667333e-05
0.9	0.0001478	0.00511999999999999	0.0161999999999999	0.0179999999999999	0.0213999999999992	-0.0002000000000002
