Vds	Gm_Vgs=0.15V	Gm_Vgs=0.3V	Gm_Vgs=0.45V	Gm_Vgs=0.6V	Gm_Vgs=0.75V	Gm_Vgs=0.9V
0	0.00017462508	0.00693626	0.0191696	0.0150436	0.1077176	0.1181964
0.005	0.00017662172	0.00658877333333333	0.0357235	0.0591796333333333	0.110955066666667	0.1220316
0.01	0.000163264032	0.006081324	0.04091092	0.07576296	0.11316624	0.12488976
0.015	0.000151374016	0.005615392	0.0454838	0.09062624	0.11461072	0.12691248
0.02	0.000135848254	0.005105813	0.04682654	0.09774772	0.11558148	0.12837022
0.025	0.000118668	0.0046282	0.04355022	0.09311918	0.1153912	0.1285908
0.03	0.000104204	0.0041962	0.0401742	0.0880264	0.1145852	0.128196
0.035	9.273e-05	0.00380154	0.0383094	0.086612	0.113924	0.127844
0.04	8.3192e-05	0.00344862	0.0364906	0.085172	0.113234	0.127422
0.045	7.5568e-05	0.003141	0.0347026	0.083618	0.11235	0.126936
0.05	6.8803e-05	0.0028782	0.03298	0.08205	0.111452	0.126438
0.055	6.3001e-05	0.0026484	0.03131	0.080476	0.11056	0.125902
0.06	5.8651e-05	0.0024452	0.029712	0.078868	0.109646	0.125416
0.065	5.4694e-05	0.0022696	0.028192	0.077188	0.108662	0.124868
0.07	5.1063e-05	0.00212	0.026746	0.0755	0.107646	0.124236
0.075	4.8411e-05	0.0019902	0.025356	0.073852	0.10663	0.123646
0.08	4.6079e-05	0.0018822	0.024016	0.072144	0.105602	0.123302
0.085	4.4019e-05	0.001792	0.022748	0.070394	0.104564	0.123126
0.09	4.2603e-05	0.0017132	0.021576	0.068746	0.10354	0.122784
0.095	4.1284e-05	0.0016464	0.020498	0.067118	0.102756	0.122342
0.1	4.0494e-05	0.0015868	0.0195	0.065402	0.10218	0.121812
0.105	4.0353e-05	0.0015326	0.018572	0.063722	0.101376	0.12086
0.11	3.9926e-05	0.0014898	0.01768	0.06205	0.100226	0.11969
0.115	4.0003e-05	0.0014584	0.016818	0.060292	0.098996	0.11882
0.12	4.076e-05	0.0014306	0.016022	0.05853	0.097576	0.11802
0.125	4.05e-05	0.0014042	0.015308	0.05683	0.09584	0.11718
0.13	3.9636e-05	0.0013786	0.014648	0.055116	0.09416	0.11638
0.135	3.9212e-05	0.001357	0.01405	0.05344	0.0928600000000001	0.11558
0.14	3.8786e-05	0.0013448	0.013504	0.05184	0.0917400000000001	0.1148
0.145	3.8719e-05	0.00134	0.012986	0.050212	0.0904600000000001	0.11398
0.15	3.9492e-05	0.0013372	0.012508	0.048544	0.08912	0.11314
0.155	4.0245e-05	0.0013344	0.012086	0.047028	0.08788	0.1124
0.16	4.0787e-05	0.0013352	0.011698	0.045848	0.0865399999999999	0.11166
0.165	4.1343e-05	0.0013352	0.011338	0.044754	0.08506	0.1108
0.17	4.1693e-05	0.0013266	0.011018	0.043456	0.08366	0.1099
0.175	4.1993e-05	0.0013226	0.010696	0.042102	0.08232	0.10896
0.18	4.2603e-05	0.0013328	0.010394	0.04072	0.08092	0.10804
0.185	4.3385e-05	0.0013386	0.010136	0.039032	0.07942	0.107
0.19	4.3654e-05	0.0013336	0.009874	0.03728	0.07794	0.1059
0.195	4.3836e-05	0.0013342	0.00962600000000001	0.03584	0.0765400000000001	0.10498
0.2	4.436e-05	0.0013426	0.009452	0.03456	0.0750800000000001	0.10406
0.205	4.466e-05	0.0013488	0.00929799999999999	0.03334	0.07358	0.10302
0.21	4.5e-05	0.0013492	0.00914	0.03226	0.07216	0.10208
0.215	4.596e-05	0.001352	0.009028	0.03122	0.07074	0.10118
0.22	4.686e-05	0.0013596	0.00890600000000001	0.03022	0.0692399999999999	0.1001
0.225	4.744e-05	0.0013622	0.00875200000000001	0.02928	0.06772	0.09898
0.23	4.852e-05	0.001365	0.00862000000000001	0.02828	0.06624	0.09792
0.235	4.942e-05	0.0013758	0.008524	0.02734	0.06482	0.09682
0.24	4.942e-05	0.0013816	0.00843999999999999	0.02646	0.06336	0.09558
0.245	4.96e-05	0.0013836	0.00836199999999999	0.02552	0.06182	0.0943799999999999
0.25	5.004e-05	0.0013944	0.00829399999999999	0.02468	0.0602799999999999	0.0932599999999998
0.255	5.002e-05	0.0014008	0.008202	0.02398	0.0588199999999999	0.0920399999999999
0.26	5.036e-05	0.001404	0.00809600000000001	0.02324	0.0573599999999999	0.0907799999999999
0.265	5.122e-05	0.0014156	0.008022	0.02254	0.05586	0.0896199999999999
0.27	5.178e-05	0.0014268	0.00797199999999999	0.02202	0.0544800000000001	0.08848
0.275	5.26e-05	0.0014332	0.007914	0.02152	0.0532600000000001	0.0873200000000001
0.28	5.376e-05	0.0014358	0.007852	0.02094	0.0519200000000001	0.0861400000000001
0.285	5.464e-05	0.0014366	0.00779800000000001	0.0204	0.0504600000000001	0.0848800000000002
0.29	5.572e-05	0.0014478	0.00775600000000001	0.01994	0.0491400000000001	0.0836200000000002
0.295	5.702e-05	0.001466	0.007716	0.01946	0.0478	0.0823600000000001
0.3	5.744e-05	0.0014714	0.00766599999999999	0.019	0.0464199999999999	0.0810199999999999
0.305	5.724e-05	0.0014782	0.007634	0.01864	0.0451599999999999	0.0795999999999999
0.31	5.74599999999999e-05	0.0014894	0.007604	0.01822	0.0439599999999999	0.0782199999999998
0.315	5.83399999999999e-05	0.0014832	0.007554	0.01774	0.04274	0.0768999999999998
0.32	5.90999999999999e-05	0.001481	0.00752000000000001	0.01736	0.04158	0.0755599999999999
0.325	5.968e-05	0.0014972	0.00751200000000001	0.017	0.0404199999999999	0.07424
0.33	6.066e-05	0.0015072	0.007516	0.01666	0.03922	0.073
0.335	6.15800000000001e-05	0.0015166	0.007516	0.0164200000000001	0.03816	0.0717800000000001
0.34	6.21400000000001e-05	0.0015376	0.007486	0.01618	0.0372400000000001	0.0705400000000002
0.345	6.25000000000001e-05	0.0015476	0.007458	0.01592	0.0362800000000001	0.0692000000000001
0.35	6.30600000000001e-05	0.0015508	0.007458	0.01568	0.0352800000000001	0.0677600000000001
0.355	6.418e-05	0.0015632	0.007422	0.0154	0.03438	0.0663800000000001
0.36	6.562e-05	0.0015712	0.007356	0.01512	0.0335	0.06504
0.365	6.65599999999999e-05	0.0015752	0.007336	0.01498	0.0325399999999999	0.0636599999999998
0.37	6.74599999999999e-05	0.0015828	0.00732800000000001	0.01486	0.0315999999999999	0.0623399999999998
0.375	6.86199999999999e-05	0.001586	0.007272	0.01468	0.03076	0.0611199999999999
0.38	6.96199999999999e-05	0.00159	0.007236	0.01456	0.02994	0.0599199999999999
0.385	7.00399999999999e-05	0.001603	0.00724	0.01442	0.02914	0.0586799999999999
0.39	7.01999999999999e-05	0.001617	0.00722399999999999	0.0142	0.02842	0.0574200000000001
0.395	7.14e-05	0.0016306	0.00720199999999999	0.01402	0.02774	0.0562000000000002
0.4	7.27400000000001e-05	0.0016452	0.007208	0.0139000000000001	0.0271	0.0549600000000001
0.405	7.31000000000002e-05	0.001653	0.00721199999999999	0.0137800000000001	0.02658	0.0537
0.41	7.41200000000001e-05	0.001655	0.007194	0.01372	0.0260400000000001	0.0525000000000001
0.415	7.56600000000001e-05	0.0016556	0.00717000000000001	0.0136599999999999	0.0254000000000001	0.0512600000000001
0.42	7.57e-05	0.0016528	0.007132	0.0134999999999999	0.02484	0.05
0.425	7.58999999999999e-05	0.0016598	0.00711799999999999	0.0132799999999999	0.02432	0.04886
0.43	7.76999999999999e-05	0.0016804	0.007138	0.01312	0.0237	0.04768
0.435	7.91799999999999e-05	0.0016966	0.00713200000000001	0.01306	0.0231399999999999	0.04644
0.44	8.01199999999999e-05	0.001707	0.007108	0.01298	0.0226999999999999	0.04538
0.445	8.16599999999999e-05	0.0017152	0.007124	0.01288	0.0222199999999999	0.0443799999999999
0.45	8.27799999999999e-05	0.001716	0.00710599999999999	0.01284	0.0218	0.0432399999999998
0.455	8.27200000000001e-05	0.001719	0.00703199999999999	0.01278	0.02148	0.0421199999999999
0.46	8.26400000000002e-05	0.0017334	0.00704	0.01266	0.0211	0.0411
0.465	8.34600000000001e-05	0.001744	0.0071	0.0126	0.0207000000000001	0.04008
0.47	8.41600000000001e-05	0.0017598	0.00708800000000001	0.0125600000000001	0.0204200000000001	0.0390800000000001
0.475	8.51200000000001e-05	0.001782	0.00705200000000002	0.0125	0.02012	0.0381800000000002
0.48	8.688e-05	0.0017794	0.00704400000000002	0.01244	0.01972	0.0373600000000001
0.485	8.81999999999999e-05	0.0017702	0.00703600000000001	0.0123400000000001	0.01938	0.03654
0.49	8.87199999999999e-05	0.0017838	0.007022	0.01226	0.0191	0.03568
0.495	8.99e-05	0.001801	0.006988	0.01218	0.01884	0.0347799999999999
0.5	9.154e-05	0.001809	0.00700199999999999	0.01208	0.0186200000000001	0.0339199999999999
0.505	9.19399999999999e-05	0.0018242	0.00706599999999999	0.01204	0.0184200000000001	0.0331399999999999
0.51	9.232e-05	0.001845	0.00706799999999999	0.012	0.0182399999999999	0.0323599999999999
0.515	9.396e-05	0.0018576	0.00702999999999998	0.0119199999999999	0.0180799999999999	0.0316199999999999
0.52	9.57599999999999e-05	0.0018584	0.00702999999999998	0.0119199999999999	0.01788	0.0309599999999999
0.525	9.646e-05	0.0018578	0.00702999999999998	0.01194	0.0176399999999999	0.0302799999999999
0.53	9.744e-05	0.0018706	0.00700999999999998	0.01184	0.0174399999999999	0.0296
0.535	9.9e-05	0.0018882	0.00701399999999999	0.01174	0.0172200000000001	0.02902
0.54	0.0001004	0.0018924	0.007028	0.01166	0.0169200000000001	0.02848
0.545	0.00010194	0.0018892	0.007044	0.0116	0.0167	0.0279
0.55	0.00010406	0.001903	0.00703800000000002	0.01166	0.01656	0.0273000000000001
0.555	0.00010556	0.00191580000000001	0.00701000000000004	0.0117000000000001	0.01634	0.0267200000000002
0.56	0.00010596	0.00191100000000001	0.00701800000000003	0.0116400000000001	0.01618	0.0261400000000001
0.565	0.00010636	0.00192440000000001	0.00704000000000003	0.0116000000000001	0.01614	0.0255400000000002
0.57	0.00010632	0.00195060000000001	0.00704000000000003	0.0115200000000001	0.01596	0.0250400000000002
0.575	0.00010636	0.00195680000000001	0.00704400000000001	0.0113600000000001	0.01576	0.0246800000000001
0.58	0.00010774	0.001966	0.00705999999999999	0.01128	0.01572	0.0242799999999999
0.585	0.00011064	0.0019836	0.00702599999999998	0.0112599999999999	0.0156199999999999	0.0237599999999999
0.59	0.0001126	0.0019848	0.00695599999999998	0.01124	0.01546	0.02324
0.595	0.0001133	0.0019878	0.00693399999999999	0.01118	0.0153800000000001	0.0228
0.6	0.0001143	0.0020014	0.006944	0.0111	0.0152400000000001	0.02244
0.605	0.00011528	0.0020182	0.006958	0.01114	0.0150400000000002	0.02218
0.61	0.0001159	0.0020362	0.00696000000000001	0.01116	0.0149400000000002	0.0219399999999999
0.615	0.00011714	0.0020562	0.00697400000000001	0.0111	0.0149	0.0216399999999998
0.62	0.00011986	0.0020794	0.007016	0.0111	0.0148399999999999	0.0212999999999998
0.625	0.0001228	0.0020924	0.00701999999999999	0.0111	0.0147799999999999	0.0208599999999999
0.63	0.00012468	0.0020914	0.00698599999999998	0.01104	0.0147399999999999	0.02038
0.635	0.00012494	0.0020882	0.006984	0.01102	0.0146599999999999	0.0201
0.64	0.00012426	0.002082	0.00700199999999999	0.01104	0.0145199999999999	0.0199400000000001
0.645	0.0001247	0.002076	0.00700599999999997	0.01106	0.0143999999999999	0.0197200000000001
0.65	0.0001264	0.00208	0.00704599999999997	0.01104	0.0143799999999999	0.0195400000000001
0.655	0.00012742	0.002088	0.007076	0.01096	0.0143199999999999	0.01936
0.66	0.00012944	0.00211	0.00704799999999998	0.0109799999999999	0.0141	0.01906
0.665	0.00013374	0.00214	0.00702999999999997	0.011	0.0139400000000001	0.01876
0.67	0.00013614	0.002154	0.00702599999999999	0.01088	0.0139200000000001	0.0185
0.675	0.00013558	0.002162	0.00700600000000002	0.01082	0.0138400000000001	0.0182399999999999
0.68	0.0001364	0.00216600000000001	0.00701600000000003	0.01086	0.0138600000000001	0.01806
0.685	0.00013874	0.00216000000000001	0.00707000000000004	0.01084	0.0140800000000001	0.01792
0.69	0.00013972	0.00217000000000001	0.00708200000000005	0.0108	0.01408	0.01774
0.695	0.00013966	0.00219200000000001	0.00704400000000005	0.01082	0.0138	0.0175200000000001
0.7	0.00014108	0.002208	0.00703200000000004	0.01084	0.01362	0.0173
0.705	0.00014452	0.002228	0.00702800000000001	0.01078	0.0135	0.0171
0.71	0.00014706	0.00224	0.00702999999999998	0.01068	0.0133	0.0169000000000001
0.715	0.00014896	0.002238	0.00706599999999998	0.0106	0.01324	0.0167
0.72	0.00015238	0.002252	0.00706399999999999	0.0106	0.0133000000000001	0.0165999999999999
0.725	0.0001543	0.002272	0.00701999999999999	0.01064	0.0133400000000001	0.01658
0.73	0.00015356	0.002276	0.007004	0.01058	0.01334	0.01644
0.735	0.00015454	0.002296	0.00698000000000002	0.01054	0.0133	0.0162399999999999
0.74	0.0001566	0.002308	0.00697000000000003	0.01062	0.0132999999999999	0.01614
0.745	0.00015714	0.002286	0.00705400000000001	0.0107	0.0132999999999998	0.01604
0.75	0.00015832	0.002288	0.00712799999999999	0.0107	0.0131799999999998	0.01584
0.755	0.0001604	0.002318	0.00710599999999998	0.0107399999999999	0.0130799999999999	0.0157
0.76	0.00016172	0.00232	0.00704399999999999	0.0107399999999999	0.0130999999999999	0.01572
0.765	0.00016282	0.002318	0.00701999999999997	0.0106	0.01306	0.0156999999999999
0.77	0.00016468	0.002344	0.00704799999999996	0.01048	0.0129600000000001	0.0155399999999999
0.775	0.00016764	0.002358	0.00707199999999997	0.01042	0.0129000000000001	0.0153799999999999
0.78	0.00017184	0.002358	0.00707799999999999	0.01042	0.0128400000000001	0.0152199999999999
0.785	0.00017452	0.002376	0.007118	0.01046	0.01272	0.01506
0.79	0.00017542	0.002404	0.007132	0.01046	0.0126	0.01496
0.795	0.00017652	0.002416	0.007044	0.01044	0.0125999999999999	0.0148600000000001
0.8	0.00017668	0.00242400000000001	0.00699800000000001	0.01046	0.0126599999999999	0.0147800000000001
0.805	0.000176780000000001	0.00243600000000001	0.00705200000000002	0.01048	0.01266	0.0147600000000001
0.81	0.000178400000000001	0.00243800000000001	0.00707600000000002	0.0105	0.0126400000000001	0.01462
0.815	0.000180880000000001	0.00244000000000001	0.00705600000000003	0.0105	0.01262	0.0143799999999999
0.82	0.000184180000000001	0.00245200000000001	0.00708400000000004	0.0104400000000001	0.0126000000000001	0.0143
0.825	0.00018748	0.00246	0.00711600000000001	0.0103800000000001	0.0125600000000001	0.0143400000000001
0.83	0.00019016	0.00246399999999999	0.00710599999999998	0.01034	0.01246	0.01434
0.835	0.00019288	0.002484	0.00710799999999999	0.01032	0.0124199999999999	0.0143200000000001
0.84	0.00019478	0.00251399999999999	0.007124	0.01036	0.01248	0.0143400000000001
0.845	0.00019644	0.002534	0.00712200000000001	0.01038	0.01244	0.0143
0.85	0.00019868	0.002538	0.00711600000000001	0.0103599999999999	0.0123	0.01414
0.855	0.00020014	0.002538	0.00715399999999999	0.01034	0.01226	0.01394
0.86	0.00020198	0.002544	0.00719999999999998	0.0102600000000001	0.01226	0.0137799999999999
0.865	0.00020494	0.002554	0.00721599999999997	0.01022	0.0122	0.0136999999999999
0.87	0.00020624	0.002566	0.00721399999999997	0.0103000000000001	0.0121199999999999	0.01364
0.875	0.00020752	0.002586	0.00717599999999998	0.0103800000000001	0.0121399999999999	0.01356
0.88	0.00020988	0.002618	0.00712800000000001	0.01036	0.0122399999999999	0.0135399999999999
0.885	0.0002118	0.002644	0.00714200000000001	0.01036	0.01224	0.01356
0.89	0.0002146	0.002656	0.007196	0.0104	0.01218	0.0135000000000001
0.895	0.000219933333333334	0.00268	0.00725666666666667	0.0102999999999999	0.0123333333333335	0.0134666666666667
0.9	0.000226000000000001	0.00270000000000001	0.00736	0.0104	0.0120000000000002	0.0134000000000002
