Vds	Gm_Vgs=0.15V	Gm_Vgs=0.3V	Gm_Vgs=0.45V	Gm_Vgs=0.6V	Gm_Vgs=0.75V	Gm_Vgs=0.9V
0	0.00030695996	0.00864954	0.0198044	0.0174736	0.019522	0.0167532
0.005	0.000289238306666667	0.00820939333333333	0.0370052	0.0587267666666667	0.0719133333333333	0.0767782666666667
0.01	0.000261619984	0.007691156	0.04210184	0.0739056	0.0917964	0.10044352
0.015	0.000237082992	0.007159228	0.04676056	0.08763688	0.109852	0.12149688
0.02	0.000210687998	0.006573137	0.04807418	0.0940323	0.1188253	0.13228934
0.025	0.000186701	0.0060249	0.04469512	0.08950954	0.1141324	0.12739656
0.03	0.000166335	0.00548938	0.041369	0.084738	0.109124	0.12186
0.035	0.00014879	0.00497838	0.0396484	0.083394	0.108436	0.121324
0.04	0.00013385	0.0045366	0.0379268	0.08194	0.10762	0.12083
0.045	0.000121384	0.0041564	0.0362292	0.080492	0.106732	0.120308
0.05	0.000110645	0.003829	0.034604	0.079094	0.105872	0.119862
0.055	0.000101457	0.0035416	0.03302	0.077674	0.105006	0.119408
0.06	9.4098e-05	0.00328	0.031484	0.076244	0.104154	0.11892
0.065	8.8163e-05	0.0030544	0.030036	0.074858	0.103408	0.118542
0.07	8.3323e-05	0.0028628	0.028646	0.073466	0.102668	0.118148
0.075	7.9487e-05	0.0026878	0.027294	0.071994	0.101798	0.117586
0.08	7.6296e-05	0.0025386	0.026008	0.070472	0.100886	0.11704
0.085	7.3068e-05	0.0024172	0.02477	0.068964	0.09996	0.116626
0.09	7.0088e-05	0.002303	0.023604	0.067486	0.098968	0.116292
0.095	6.7866e-05	0.0021998	0.022506	0.065884	0.097894	0.115728
0.1	6.636e-05	0.002117	0.02146	0.06426	0.096966	0.115028
0.105	6.566e-05	0.0020404	0.020482	0.06274	0.096182	0.114418
0.11	6.538e-05	0.0019798	0.01954	0.061204	0.09524	0.113646
0.115	6.46e-05	0.0019432	0.018636	0.059646	0.094234	0.112708
0.12	6.398e-05	0.0019008	0.017814	0.05818	0.093334	0.11204
0.125	6.414e-05	0.0018606	0.01705	0.056744	0.09223	0.11154
0.13	6.388e-05	0.0018422	0.016328	0.055228	0.090856	0.11088
0.135	6.378e-05	0.0018148	0.01567	0.053706	0.08956	0.11018
0.14	6.47e-05	0.001781	0.015064	0.052224	0.08834	0.10952
0.145	6.534e-05	0.0017696	0.014508	0.050744	0.08708	0.10882
0.15	6.53e-05	0.0017596	0.013958	0.04924	0.08584	0.10794
0.155	6.57199999999999e-05	0.001742	0.013418	0.047784	0.08468	0.10706
0.16	6.63e-05	0.0017354	0.012962	0.04646	0.0835399999999999	0.10632
0.165	6.654e-05	0.0017324	0.012554	0.045272	0.08238	0.10556
0.17	6.714e-05	0.0017234	0.012156	0.044098	0.0811600000000001	0.10474
0.175	6.784e-05	0.001714	0.011822	0.042842	0.0799000000000001	0.104
0.18	6.8e-05	0.0017088	0.01151	0.041498	0.0786400000000001	0.10326
0.185	6.82799999999999e-05	0.001714	0.011192	0.040062	0.07734	0.10242
0.19	6.93799999999999e-05	0.0017172	0.010936	0.038542	0.0759999999999999	0.10156
0.195	7.03e-05	0.0017114	0.010698	0.03708	0.07466	0.10058
0.2	7.08000000000001e-05	0.001718	0.010464	0.03582	0.07338	0.0996
0.205	7.21e-05	0.001727	0.010274	0.0347	0.07212	0.09868
0.21	7.36400000000001e-05	0.0017252	0.010072	0.03366	0.0707800000000001	0.09774
0.215	7.434e-05	0.0017326	0.00983200000000001	0.0327	0.0694	0.09684
0.22	7.53e-05	0.0017452	0.00963200000000001	0.03176	0.06814	0.096
0.225	7.68e-05	0.0017436	0.00948	0.0308	0.06686	0.0951000000000001
0.23	7.752e-05	0.0017428	0.00933999999999999	0.02992	0.06546	0.09416
0.235	7.784e-05	0.0017516	0.00924199999999999	0.029	0.06418	0.09322
0.24	7.894e-05	0.0017556	0.00916199999999999	0.028	0.06294	0.09216
0.245	8.032e-05	0.0017644	0.00904599999999998	0.02714	0.06152	0.0911199999999999
0.25	8.16399999999999e-05	0.0017878	0.00890799999999998	0.0263	0.0600799999999999	0.0900599999999999
0.255	8.32599999999999e-05	0.0017988	0.00877799999999999	0.02542	0.05878	0.0889199999999999
0.26	8.45799999999999e-05	0.0017874	0.00866399999999999	0.0247	0.0575399999999999	0.08782
0.265	8.516e-05	0.0017918	0.00858999999999999	0.02406	0.0562999999999999	0.0867599999999999
0.27	8.542e-05	0.0018174	0.00854600000000001	0.02334	0.05504	0.0857
0.275	8.57800000000001e-05	0.0018218	0.00850600000000003	0.0227	0.0538200000000001	0.0847000000000001
0.28	8.66800000000001e-05	0.0018142	0.00848800000000002	0.02218	0.0525800000000001	0.0836800000000001
0.285	8.83000000000001e-05	0.0018296	0.00844400000000002	0.02168	0.0512400000000001	0.0825400000000001
0.29	9.00000000000001e-05	0.0018416	0.00836200000000003	0.02118	0.0499000000000001	0.0814000000000002
0.295	9.166e-05	0.0018292	0.00830200000000002	0.02064	0.04862	0.0802400000000001
0.3	9.31199999999999e-05	0.0018242	0.00823599999999999	0.0201	0.0474199999999999	0.0790399999999999
0.305	9.39199999999999e-05	0.001847	0.00814999999999998	0.0196	0.0462599999999999	0.0778799999999999
0.31	9.47199999999999e-05	0.0018742	0.00808399999999998	0.01912	0.0450399999999999	0.0767399999999999
0.315	9.594e-05	0.0018842	0.00803399999999999	0.01864	0.04388	0.0754999999999999
0.32	9.678e-05	0.0018904	0.00798599999999998	0.01824	0.0429	0.0742999999999999
0.325	9.78799999999999e-05	0.0019034	0.007946	0.01792	0.04182	0.0731799999999999
0.33	9.92600000000001e-05	0.0019124	0.00792200000000002	0.0176	0.04062	0.0719400000000001
0.335	0.00010006	0.0019128	0.00792400000000002	0.0173	0.03958	0.0706800000000001
0.34	0.00010116	0.0019188	0.00789800000000002	0.0170000000000001	0.0386	0.0695200000000001
0.345	0.00010254	0.0019352	0.00784800000000002	0.0167	0.03752	0.0683200000000001
0.35	0.00010358	0.001956	0.00783000000000001	0.01652	0.03654	0.0671200000000002
0.355	0.00010504	0.0019716	0.00779999999999999	0.01632	0.03572	0.066
0.36	0.00010756	0.0019742	0.00777599999999998	0.01598	0.03486	0.0648399999999999
0.365	0.00010932	0.0019746	0.00780599999999998	0.0157399999999999	0.03398	0.06372
0.37	0.00011028	0.0019852	0.00780799999999997	0.0155999999999999	0.03314	0.06266
0.375	0.00011226	0.0020012	0.00777599999999999	0.01536	0.03228	0.0614399999999999
0.38	0.00011396	0.0020022	0.00776200000000001	0.01508	0.03146	0.06012
0.385	0.00011478	0.001998	0.00769	0.0149	0.03068	0.05892
0.39	0.00011616	0.00201259999999999	0.00761	0.01476	0.02992	0.0577
0.395	0.00011746	0.0020252	0.00760600000000001	0.01458	0.02924	0.0564000000000001
0.4	0.00011784	0.0020188	0.00760800000000002	0.01438	0.02852	0.0552800000000002
0.405	0.00011854	0.0020272	0.00759200000000001	0.01426	0.02774	0.0543600000000001
0.41	0.0001198	0.0020632	0.00758200000000001	0.0141600000000001	0.0271	0.05334
0.415	0.00012134	0.0020766	0.00758600000000001	0.014	0.02654	0.05218
0.42	0.00012334	0.00207	0.00758599999999999	0.0139199999999999	0.0259	0.0510599999999999
0.425	0.0001252	0.002079	0.00754399999999997	0.0138399999999999	0.02534	0.0499799999999998
0.43	0.00012682	0.0020826	0.00750599999999997	0.0136599999999999	0.02494	0.0489199999999998
0.435	0.00012814	0.0020822	0.00755999999999998	0.0134999999999999	0.0245	0.04784
0.44	0.00012938	0.0021062	0.00759199999999999	0.0133599999999999	0.02392	0.04674
0.445	0.00013084	0.0021374	0.00753	0.01322	0.02338	0.04568
0.45	0.0001323	0.0021602	0.007528	0.0132	0.02298	0.0446000000000001
0.455	0.00013428	0.002182	0.00755000000000002	0.01322	0.02252	0.0434600000000001
0.46	0.00013638	0.0021824	0.00747800000000003	0.01312	0.0220200000000001	0.04244
0.465	0.00013738	0.0021664	0.00743800000000002	0.01298	0.02168	0.0416199999999999
0.47	0.00013862	0.002163	0.00748000000000001	0.01288	0.0214	0.04078
0.475	0.0001403	0.0021752	0.00747200000000001	0.01278	0.02102	0.03986
0.48	0.0001412	0.0021972	0.00743200000000001	0.01262	0.02064	0.03894
0.485	0.00014266	0.002213	0.00741799999999999	0.0125	0.0203	0.0380400000000001
0.49	0.00014474	0.0022106	0.00740199999999998	0.01252	0.0199	0.0371400000000001
0.495	0.00014646	0.0022094	0.00739599999999999	0.0125	0.01954	0.0362200000000001
0.5	0.00014828	0.0022188	0.0074	0.01234	0.01924	0.03534
0.505	0.00015048	0.002228	0.00742799999999999	0.01228	0.01894	0.03454
0.51	0.00015276	0.002248	0.00749799999999999	0.0123	0.01876	0.0338
0.515	0.00015454	0.00229	0.00751399999999999	0.0122400000000001	0.01862	0.0330599999999999
0.52	0.0001553	0.002314	0.00747599999999999	0.0122	0.01836	0.03238
0.525	0.00015632	0.002292	0.00745799999999998	0.01216	0.01816	0.0318
0.53	0.00015876	0.002282	0.00740599999999998	0.0121	0.01808	0.03114
0.535	0.00016088	0.002306	0.00732999999999999	0.01208	0.0178799999999999	0.0303599999999999
0.54	0.00016242	0.002312	0.00730599999999999	0.01204	0.01762	0.02968
0.545	0.00016512	0.002304	0.00731599999999999	0.01192	0.01744	0.0291399999999999
0.55	0.0001683	0.00233	0.00731000000000002	0.01184	0.01726	0.02858
0.555	0.000169360000000001	0.00235800000000001	0.00732600000000004	0.01184	0.01702	0.0280400000000001
0.56	0.000169220000000001	0.00235400000000001	0.00737600000000003	0.01186	0.01676	0.0275600000000001
0.565	0.000171100000000001	0.00236600000000001	0.00740000000000002	0.01188	0.01662	0.0270200000000001
0.57	0.000173180000000001	0.00239800000000001	0.00740200000000002	0.01186	0.01656	0.0264400000000001
0.575	0.00017472	0.002412	0.007422	0.01184	0.0163600000000001	0.0259400000000001
0.58	0.00017802	0.00241	0.00741399999999998	0.01178	0.0161000000000001	0.02542
0.585	0.000181919999999999	0.002416	0.007364	0.01162	0.01598	0.02482
0.59	0.00018422	0.002424	0.007334	0.01144	0.01582	0.0243400000000001
0.595	0.0001861	0.002438	0.00731399999999998	0.01138	0.01558	0.0239600000000001
0.6	0.00018918	0.002446	0.00729199999999999	0.01136	0.0154799999999999	0.02344
0.605	0.00019158	0.002438	0.007302	0.01128	0.01546	0.0229999999999999
0.61	0.00019246	0.002446	0.007346	0.0113	0.01536	0.0228
0.615	0.00019462	0.002458	0.00740200000000001	0.0114400000000001	0.01522	0.02252
0.62	0.0001973	0.002462	0.00745200000000002	0.0115	0.0151	0.02214
0.625	0.0001977	0.002484	0.00745000000000002	0.01146	0.01506	0.0218
0.63	0.00019878	0.002526	0.00738800000000001	0.01146	0.0150799999999999	0.0214999999999999
0.635	0.00020184	0.002556	0.00733	0.01142	0.01502	0.0212199999999998
0.64	0.00020392	0.002564	0.00731399999999999	0.01126	0.01496	0.0209399999999998
0.645	0.00020616	0.00256	0.00731599999999998	0.01114	0.0149399999999999	0.0206599999999998
0.65	0.0002092	0.00256	0.007328	0.0111999999999999	0.0147999999999999	0.0204399999999999
0.655	0.00021024	0.00256	0.00739600000000001	0.01128	0.01454	0.02014
0.66	0.0002115	0.00256	0.00745199999999999	0.0112	0.01436	0.0197
0.665	0.0002166	0.00259	0.00740399999999998	0.01112	0.0143	0.01934
0.67	0.00022086	0.002628	0.00735199999999999	0.01118	0.01428	0.0190800000000001
0.675	0.00022066	0.00263600000000001	0.00738400000000001	0.01118	0.01424	0.0189000000000001
0.68	0.000222380000000001	0.00263400000000001	0.00739800000000001	0.01102	0.0141800000000001	0.0187600000000002
0.685	0.000225820000000001	0.00263200000000001	0.00737000000000001	0.01098	0.01414	0.0186600000000001
0.69	0.000226800000000001	0.00262000000000001	0.00741200000000002	0.01106	0.01406	0.0185400000000001
0.695	0.000229340000000001	0.00262600000000001	0.00745600000000002	0.01094	0.01386	0.01826
0.7	0.00023442	0.002666	0.00742199999999998	0.01076	0.01368	0.0179399999999999
0.705	0.00023768	0.002706	0.00738599999999997	0.01084	0.0137199999999999	0.0177599999999999
0.71	0.00024008	0.002734	0.00740000000000001	0.011	0.0137599999999999	0.0176
0.715	0.00024278	0.002754	0.00739200000000002	0.01102	0.01366	0.01742
0.72	0.00024424	0.00274	0.007374	0.0110600000000001	0.01368	0.01734
0.725	0.00024674	0.00271	0.007394	0.0110800000000001	0.0137400000000001	0.0171800000000001
0.73	0.0002507	0.002718	0.00741000000000001	0.01094	0.0135800000000001	0.01692
0.735	0.00025432	0.002736	0.00745199999999999	0.01078	0.0134800000000001	0.01674
0.74	0.00025488	0.00273999999999999	0.00747799999999997	0.0107	0.01356	0.0166
0.745	0.0002545	0.00276599999999999	0.007438	0.0107	0.01352	0.0164599999999999
0.75	0.00025822	0.00278799999999999	0.00745400000000001	0.01078	0.0134	0.0163599999999999
0.755	0.00026176	0.00278999999999999	0.00750999999999999	0.01084	0.0134	0.01624
0.76	0.00026174	0.002802	0.007416	0.01082	0.0133399999999999	0.01608
0.765	0.0002645	0.002816	0.007334	0.0108399999999999	0.0131399999999999	0.0159000000000001
0.77	0.00027006	0.002834	0.00740599999999999	0.0108399999999999	0.01306	0.0157800000000001
0.775	0.00027378	0.002868	0.007392	0.0107599999999999	0.0131	0.01574
0.78	0.00027796	0.002894	0.00733	0.0107	0.0130599999999999	0.0156599999999999
0.785	0.00028374	0.00288599999999999	0.00738999999999999	0.0107	0.01298	0.0155199999999999
0.79	0.0002855	0.00287399999999999	0.007424	0.01074	0.01294	0.0154399999999999
0.795	0.0002854	0.002878	0.00739399999999999	0.01074	0.0129	0.01534
0.8	0.000291200000000001	0.002886	0.00742799999999999	0.01068	0.01292	0.0151400000000002
0.805	0.000295400000000001	0.00289800000000001	0.00745200000000002	0.0106200000000001	0.0129600000000001	0.0150000000000002
0.81	0.000295180000000001	0.00291600000000001	0.00744200000000003	0.0106000000000001	0.0129800000000001	0.0149600000000002
0.815	0.000300700000000001	0.00293200000000001	0.00746000000000003	0.01062	0.0129800000000001	0.0149400000000001
0.82	0.000308800000000001	0.00293600000000002	0.00746200000000003	0.01068	0.0129200000000001	0.0148600000000001
0.825	0.0003102	0.00293600000000001	0.00748400000000001	0.01072	0.0128000000000001	0.01478
0.83	0.000309799999999999	0.00293200000000001	0.00752199999999997	0.0107399999999999	0.0126399999999999	0.0147599999999999
0.835	0.000310799999999999	0.00295600000000001	0.00750799999999999	0.01076	0.01252	0.0146799999999999
0.84	0.000312399999999999	0.003006	0.007514	0.01068	0.01252	0.0144599999999999
0.845	0.000316	0.00301999999999999	0.00755399999999999	0.01056	0.0125799999999999	0.0143399999999999
0.85	0.000318	0.00301599999999999	0.00751399999999999	0.01054	0.0126	0.0144199999999999
0.855	0.0003218	0.00303399999999999	0.007438	0.01054	0.01264	0.0144399999999999
0.86	0.0003306	0.00303999999999999	0.00743	0.0105	0.0126600000000001	0.01434
0.865	0.000337	0.003028	0.00746199999999998	0.01046	0.0126200000000001	0.0142400000000001
0.87	0.0003374	0.003058	0.007492	0.01042	0.01252	0.0141
0.875	0.0003362	0.003116	0.00751200000000002	0.01044	0.0124	0.0139400000000001
0.88	0.0003362	0.003132	0.00756000000000001	0.0105	0.01242	0.0138400000000001
0.885	0.0003386	0.003124	0.00761199999999999	0.01052	0.0124199999999999	0.01384
0.89	0.000342399999999999	0.00312599999999999	0.00759799999999999	0.0105400000000001	0.0122999999999999	0.0139399999999998
0.895	0.000348999999999999	0.00309333333333333	0.00751666666666663	0.0105666666666668	0.0123666666666667	0.0139999999999998
0.9	0.000363999999999998	0.00306	0.00759999999999996	0.0106000000000002	0.0118	0.0139999999999994
