Vds	Gm_Vgs=0.15V	Gm_Vgs=0.3V	Gm_Vgs=0.45V	Gm_Vgs=0.6V	Gm_Vgs=0.75V	Gm_Vgs=0.9V
0	1.471928e-05	0.0016817	0.0167384	0.131436	0.180316	0.204552
0.005	1.36453966666667e-05	0.00157315	0.0313263	0.128823	0.178849333333333	0.203302333333333
0.01	1.189908e-05	0.00138818	0.03495992	0.1268288	0.177214	0.2022016
0.015	1.0374024e-05	0.00122474	0.03814164	0.1241576	0.1757228	0.2012532
0.02	8.75329e-06	0.001047175	0.03821574	0.1213788	0.174069	0.2002422
0.025	7.317642e-06	0.00088471	0.03413434	0.118667	0.1725204	0.1994922
0.03	6.1422e-06	0.00074824	0.0300644	0.1154332	0.17098	0.198822
0.035	5.1508e-06	0.00063198	0.0274244	0.112062	0.169304	0.197924
0.04	4.3128e-06	0.00053256	0.024967	0.108908	0.167558	0.197008
0.045	3.616e-06	0.00044922	0.0226754	0.105666	0.165774	0.196534
0.05	3.0342e-06	0.0003797	0.0205062	0.102372	0.163962	0.196384
0.055	2.5434e-06	0.00032046	0.018488	0.099034	0.162352	0.195694
0.06	2.1412e-06	0.00027028	0.016652	0.095728	0.161062	0.1946
0.065	1.8224e-06	0.00022904	0.014962	0.092506	0.159484	0.193474
0.07	1.5606e-06	0.00019468	0.013408	0.089234	0.157558	0.191912
0.075	1.3424e-06	0.00016508	0.012004	0.085936	0.155596	0.190068
0.08	1.1644e-06	0.00014052	0.010722	0.082694	0.1533	0.1887
0.085	1.0086e-06	0.0001206	0.009546	0.079416	0.150648	0.1877
0.09	8.676e-07	0.00010298	0.008482	0.076104	0.1482	0.18666
0.095	7.51200000000001e-07	8.792e-05	0.00753	0.072868	0.14594	0.18556
0.1	6.54600000000001e-07	7.65e-05	0.00667800000000001	0.069632	0.14366	0.18434
0.105	5.752e-07	6.66000000000001e-05	0.00592800000000001	0.066458	0.14142	0.18312
0.11	5.198e-07	5.69600000000001e-05	0.005274	0.063392	0.13904	0.18186
0.115	4.762e-07	4.956e-05	0.00468399999999999	0.0607	0.13668	0.18048
0.12	4.274e-07	4.43800000000001e-05	0.00413399999999999	0.058376	0.13432	0.17898
0.125	3.80199999999999e-07	3.97600000000001e-05	0.003656	0.0558	0.13188	0.17756
0.13	3.418e-07	3.58399999999999e-05	0.003248	0.052934	0.12946	0.17624
0.135	3.1e-07	3.27799999999999e-05	0.002884	0.050034	0.12696	0.17492
0.14	2.838e-07	3.004e-05	0.002588	0.046858	0.12438	0.17358
0.145	2.644e-07	2.71599999999999e-05	0.00233600000000001	0.043468	0.12192	0.17228
0.15	2.47800000000001e-07	2.436e-05	0.002088	0.04046	0.11944	0.17088
0.155	2.29e-07	2.21600000000001e-05	0.001874	0.0379	0.11684	0.16924
0.16	2.176e-07	2.09800000000001e-05	0.001692	0.03556	0.11432	0.16758
0.165	2.15e-07	2.012e-05	0.001504	0.03334	0.11166	0.16602
0.17	2.126e-07	1.88e-05	0.00135	0.0312	0.10886	0.1645
0.175	2.154e-07	1.812e-05	0.001246	0.02914	0.10616	0.16292
0.18	2.194e-07	1.80799999999999e-05	0.001144	0.02714	0.10342	0.16134
0.185	2.11399999999999e-07	1.73199999999999e-05	0.001038	0.02522	0.10052	0.1596
0.19	1.97999999999999e-07	1.64599999999999e-05	0.000965999999999996	0.02336	0.09776	0.1578
0.195	1.83e-07	1.62199999999999e-05	0.000918	0.02156	0.09514	0.15608
0.2	1.71000000000001e-07	1.53599999999999e-05	0.000858	0.01996	0.09242	0.15424
0.205	1.68400000000001e-07	1.446e-05	0.000804	0.01854	0.08974	0.15238
0.21	1.67600000000001e-07	1.44600000000001e-05	0.000778000000000003	0.01716	0.08714	0.15072
0.215	1.70000000000001e-07	1.47200000000001e-05	0.00075	0.01588	0.0843799999999999	0.149
0.22	1.75e-07	1.50600000000001e-05	0.000699999999999993	0.01474	0.0815399999999999	0.14708
0.225	1.7e-07	1.506e-05	0.000665999999999991	0.01366	0.0788	0.14522
0.23	1.58e-07	1.44599999999999e-05	0.000653999999999993	0.01262	0.076	0.14336
0.235	1.518e-07	1.382e-05	0.000619999999999996	0.01166	0.0732200000000001	0.14134
0.24	1.47999999999999e-07	1.332e-05	0.000571999999999999	0.01072	0.0705800000000001	0.13914
0.245	1.45399999999999e-07	1.296e-05	0.000550000000000003	0.00984000000000002	0.0679000000000001	0.13702
0.25	1.50799999999999e-07	1.3e-05	0.000542000000000007	0.00911999999999997	0.06518	0.13502
0.255	1.62599999999999e-07	1.33200000000001e-05	0.000532000000000006	0.00843999999999995	0.0626	0.13292
0.26	1.742e-07	1.36600000000001e-05	0.000524000000000006	0.00773999999999996	0.0600799999999998	0.13078
0.265	1.65e-07	1.374e-05	0.000520000000000008	0.00721999999999996	0.0575199999999998	0.12878
0.27	1.474e-07	1.35600000000001e-05	0.000516000000000002	0.00681999999999997	0.0550599999999999	0.12668
0.275	1.53000000000001e-07	1.32e-05	0.000501999999999994	0.00630000000000001	0.05276	0.12436
0.28	1.628e-07	1.286e-05	0.000485999999999994	0.00578000000000005	0.0504	0.12206
0.285	1.558e-07	1.268e-05	0.000477999999999994	0.00542000000000003	0.0479800000000002	0.1198
0.29	1.558e-07	1.224e-05	0.000461999999999998	0.00508000000000001	0.0457400000000002	0.11754
0.295	1.71599999999999e-07	1.15e-05	0.000442000000000003	0.0047	0.0435000000000001	0.11526
0.3	1.68599999999999e-07	1.112e-05	0.000436000000000004	0.00444	0.0411600000000001	0.11298
0.305	1.48599999999999e-07	1.116e-05	0.000426000000000007	0.00431999999999998	0.0390200000000001	0.11058
0.31	1.44e-07	1.154e-05	0.000420000000000008	0.00415999999999999	0.0370799999999999	0.10814
0.315	1.48600000000001e-07	1.196e-05	0.000427999999999999	0.00390000000000001	0.0351399999999999	0.10578
0.32	1.424e-07	1.24e-05	0.000435999999999995	0.00366	0.0333199999999998	0.10338
0.325	1.36e-07	1.29400000000001e-05	0.000438	0.00347999999999999	0.0315999999999999	0.10094
0.33	1.42e-07	1.23200000000001e-05	0.000440000000000002	0.00328	0.02982	0.0986200000000001
0.335	1.434e-07	1.148e-05	0.000436	0.00308	0.0281200000000001	0.0963000000000002
0.34	1.46400000000001e-07	1.22199999999999e-05	0.000422000000000001	0.00302000000000001	0.0265400000000001	0.0938800000000001
0.345	1.61400000000001e-07	1.26999999999999e-05	0.000422000000000001	0.00300000000000004	0.0250000000000001	0.0915200000000001
0.35	1.58000000000002e-07	1.20399999999999e-05	0.000419999999999996	0.00284000000000003	0.0235200000000001	0.08916
0.355	1.41400000000001e-07	1.20199999999999e-05	0.000401999999999989	0.00266000000000001	0.02216	0.0866799999999999
0.36	1.42e-07	1.15999999999999e-05	0.000401999999999989	0.0026	0.0208799999999998	0.0841799999999999
0.365	1.42799999999999e-07	1.00400000000001e-05	0.000419999999999995	0.00255999999999999	0.0196399999999998	0.0817199999999999
0.37	1.35799999999999e-07	9.54000000000004e-06	0.000408000000000001	0.00251999999999999	0.0184599999999998	0.0792199999999999
0.375	1.51599999999999e-07	1.07200000000001e-05	0.000390000000000004	0.00251999999999999	0.0173599999999999	0.07676
0.38	1.70599999999999e-07	1.17800000000001e-05	0.000390000000000008	0.00249999999999998	0.01638	0.07442
0.385	1.61199999999999e-07	1.184e-05	0.000368000000000009	0.00243999999999999	0.0154000000000001	0.07208
0.39	1.488e-07	1.204e-05	0.000354000000000001	0.00234000000000001	0.01442	0.0696999999999998
0.395	1.416e-07	1.224e-05	0.000373999999999995	0.00224000000000002	0.01358	0.0674399999999999
0.4	1.246e-07	1.156e-05	0.000391999999999997	0.00218000000000001	0.01278	0.0651600000000001
0.405	1.184e-07	1.10000000000001e-05	0.000399999999999997	0.00214000000000001	0.01198	0.0628
0.41	1.332e-07	1.13400000000002e-05	0.000409999999999999	0.0021	0.0114	0.0605600000000001
0.415	1.43e-07	1.15800000000001e-05	0.000416000000000006	0.00204	0.0109	0.0583400000000002
0.42	1.468e-07	1.108e-05	0.000412000000000008	0.00195999999999998	0.01024	0.0560800000000001
0.425	1.50799999999999e-07	1.032e-05	0.000398000000000004	0.00191999999999998	0.00967999999999996	0.0538999999999999
0.43	1.422e-07	9.81999999999997e-06	0.000372000000000002	0.00191999999999999	0.00919999999999989	0.0517999999999999
0.435	1.304e-07	1.00199999999999e-05	0.000356000000000002	0.00196000000000002	0.00857999999999997	0.0497599999999999
0.44	1.31599999999999e-07	1.038e-05	0.000362000000000001	0.00204000000000001	0.00806000000000007	0.0477599999999999
0.445	1.32e-07	1.02000000000001e-05	0.000365999999999999	0.00205999999999999	0.00776000000000012	0.04578
0.45	1.29200000000001e-07	1.02600000000001e-05	0.000361999999999997	0.00203999999999999	0.00748000000000012	0.0438400000000001
0.455	1.37800000000002e-07	1.066e-05	0.000375999999999996	0.00206	0.00716000000000008	0.0419000000000001
0.46	1.50600000000003e-07	1.104e-05	0.000393999999999998	0.00204	0.00684000000000005	0.03996
0.465	1.51800000000002e-07	1.11999999999999e-05	0.000377999999999998	0.00197999999999999	0.00651999999999994	0.0381999999999999
0.47	1.494e-07	1.06199999999999e-05	0.000361999999999997	0.00199999999999999	0.00627999999999984	0.03656
0.475	1.61599999999999e-07	1.00799999999999e-05	0.000364000000000003	0.00198000000000001	0.00605999999999989	0.0348599999999999
0.48	1.76399999999998e-07	1.06599999999999e-05	0.000356000000000007	0.00184	0.00579999999999997	0.0332599999999999
0.485	1.74599999999998e-07	1.04799999999999e-05	0.000350000000000003	0.00173999999999999	0.00570000000000001	0.03178
0.49	1.616e-07	9.00000000000001e-06	0.000349999999999998	0.00168	0.00562000000000007	0.0301800000000001
0.495	1.53800000000001e-07	9.90000000000008e-06	0.000333999999999998	0.0016	0.00532000000000011	0.0285200000000001
0.5	1.478e-07	1.16600000000001e-05	0.000325999999999998	0.00163999999999999	0.00498000000000012	0.02712
0.505	1.39600000000001e-07	1.08200000000001e-05	0.000345999999999996	0.00177999999999999	0.00480000000000008	0.02586
0.51	1.34400000000002e-07	1.01e-05	0.000357999999999994	0.00177999999999999	0.00466000000000001	0.02454
0.515	1.336e-07	1.096e-05	0.000355999999999997	0.00167999999999998	0.00452000000000001	0.0233599999999999
0.52	1.35799999999998e-07	1.118e-05	0.000360000000000004	0.00168	0.00449999999999999	0.0223199999999998
0.525	1.37199999999998e-07	1.102e-05	0.000348000000000002	0.00170000000000002	0.00449999999999992	0.0211600000000001
0.53	1.39399999999998e-07	1.13400000000001e-05	0.000319999999999999	0.00164000000000001	0.00439999999999996	0.0199600000000002
0.535	1.44799999999999e-07	1.12000000000001e-05	0.000318000000000002	0.00166000000000001	0.00425999999999995	0.0189000000000001
0.54	1.614e-07	1.064e-05	0.000326000000000002	0.00176000000000001	0.00415999999999985	0.0179000000000001
0.545	1.73400000000002e-07	1.03599999999999e-05	0.000328000000000003	0.00177999999999999	0.00405999999999989	0.0170000000000001
0.55	1.56400000000003e-07	1.088e-05	0.000356000000000007	0.00174000000000001	0.00398000000000003	0.0162199999999999
0.555	1.36400000000001e-07	1.118e-05	0.000380000000000004	0.00170000000000002	0.00398000000000004	0.0153999999999999
0.56	1.362e-07	1.058e-05	0.000366000000000001	0.00166000000000002	0.00398000000000004	0.0145999999999999
0.565	1.35599999999999e-07	1.09400000000001e-05	0.00035	0.00162000000000003	0.0039000000000001	0.0139999999999999
0.57	1.37799999999999e-07	1.212e-05	0.000335999999999997	0.00156000000000002	0.00382000000000002	0.01342
0.575	1.56399999999998e-07	1.18599999999999e-05	0.000321999999999996	0.00149999999999999	0.00379999999999992	0.0127999999999999
0.58	1.69799999999999e-07	1.08e-05	0.000327999999999999	0.00154000000000001	0.00375999999999994	0.0122799999999998
0.585	1.58999999999999e-07	1.096e-05	0.000331999999999997	0.00162000000000001	0.00361999999999994	0.0117399999999999
0.59	1.466e-07	1.094e-05	0.000329999999999996	0.00161999999999995	0.00347999999999994	0.01108
0.595	1.512e-07	9.40000000000007e-06	0.000339999999999997	0.00163999999999996	0.00346000000000006	0.01042
0.6	1.57e-07	8.66000000000007e-06	0.000349999999999994	0.00168	0.00348000000000008	0.00990000000000018
0.605	1.546e-07	9.59999999999997e-06	0.000351999999999995	0.00161999999999999	0.00341999999999995	0.00952000000000008
0.61	1.558e-07	1.06399999999999e-05	0.000354000000000005	0.00153999999999998	0.00335999999999996	0.00919999999999989
0.615	1.588e-07	1.152e-05	0.000358000000000007	0.00158000000000002	0.00342000000000002	0.00879999999999991
0.62	1.53800000000001e-07	1.20399999999999e-05	0.000356000000000002	0.00160000000000004	0.00341999999999995	0.00839999999999993
0.625	1.506e-07	1.14199999999999e-05	0.00033	0.00148000000000002	0.00329999999999997	0.00815999999999997
0.63	1.512e-07	1.07e-05	0.000297999999999999	0.00144000000000002	0.0032200000000001	0.0078800000000001
0.635	1.57199999999999e-07	1.046e-05	0.000289999999999999	0.00152000000000003	0.00318000000000006	0.00746000000000024
0.64	1.62399999999999e-07	9.96000000000001e-06	0.000292	0.00152000000000003	0.00315999999999997	0.00722000000000028
0.645	1.614e-07	1.00800000000001e-05	0.000303999999999998	0.00152000000000003	0.00320000000000001	0.00720000000000012
0.65	1.656e-07	1.11600000000001e-05	0.000325999999999998	0.0016	0.00320000000000001	0.00703999999999996
0.655	1.70600000000001e-07	1.176e-05	0.000341999999999998	0.00157999999999995	0.00320000000000001	0.00677999999999997
0.66	1.64800000000003e-07	1.15e-05	0.000349999999999994	0.00149999999999994	0.00326000000000007	0.00665999999999999
0.665	1.55800000000003e-07	1.10599999999999e-05	0.000347999999999993	0.00147999999999995	0.00318000000000006	0.00647999999999995
0.67	1.53400000000001e-07	1.02599999999999e-05	0.000333999999999998	0.00143999999999995	0.00304000000000005	0.00614000000000003
0.675	1.578e-07	9.44000000000005e-06	0.000326000000000003	0.00145999999999997	0.00306000000000008	0.0058800000000002
0.68	1.6e-07	9.7600000000001e-06	0.000326000000000004	0.00154000000000002	0.00308000000000004	0.00580000000000013
0.685	1.592e-07	1.02800000000001e-05	0.000316000000000002	0.00150000000000005	0.00298000000000001	0.00577999999999983
0.69	1.664e-07	1.05400000000001e-05	0.000316000000000002	0.00148000000000006	0.00300000000000003	0.00569999999999975
0.695	1.698e-07	1.10600000000001e-05	0.000336000000000001	0.00152000000000007	0.00308000000000004	0.00549999999999983
0.7	1.56200000000001e-07	1.06e-05	0.000336	0.00146000000000004	0.00302000000000004	0.00527999999999974
0.705	1.47400000000001e-07	9.41999999999998e-06	0.000316000000000005	0.00140000000000001	0.00289999999999998	0.0052199999999998
0.71	1.61199999999999e-07	9.19999999999997e-06	0.000320000000000008	0.00144000000000002	0.00287999999999989	0.00514000000000014
0.715	1.774e-07	8.78e-06	0.000324000000000005	0.00146	0.00289999999999991	0.00498000000000026
0.72	1.826e-07	8.26000000000001e-06	0.000304000000000007	0.00143999999999998	0.00279999999999995	0.0049600000000001
0.725	1.81599999999999e-07	9.41999999999991e-06	0.000304000000000003	0.00146	0.00271999999999994	0.00502000000000002
0.73	1.76999999999999e-07	1.05599999999998e-05	0.000323999999999992	0.00146	0.00283999999999999	0.00494000000000008
0.735	1.754e-07	1.05199999999999e-05	0.000337999999999992	0.00143999999999995	0.00296000000000004	0.00476000000000004
0.74	1.80399999999999e-07	1.074e-05	0.000341999999999998	0.00141999999999993	0.00289999999999998	0.00469999999999984
0.745	1.818e-07	1.122e-05	0.000320000000000003	0.00139999999999994	0.00287999999999989	0.00471999999999986
0.75	1.802e-07	1.112e-05	0.000294000000000006	0.00137999999999996	0.00287999999999989	0.00460000000000002
0.755	1.80399999999999e-07	1.07800000000001e-05	0.000284000000000005	0.00133999999999999	0.00273999999999996	0.00441999999999998
0.76	1.67399999999999e-07	1.06600000000001e-05	0.000278000000000001	0.00132	0.00264000000000007	0.00437999999999994
0.765	1.398e-07	1.064e-05	0.000284	0.00132	0.00264000000000014	0.00432000000000001
0.77	1.25199999999999e-07	1.05999999999999e-05	0.000303999999999998	0.00132	0.0026000000000001	0.00424000000000007
0.775	1.34599999999999e-07	1.016e-05	0.000321999999999996	0.00137999999999999	0.00266000000000002	0.00424000000000007
0.78	1.504e-07	9.68000000000001e-06	0.000327999999999999	0.00149999999999997	0.00281999999999997	0.00414000000000011
0.785	1.568e-07	9.81999999999998e-06	0.000320000000000003	0.00151999999999999	0.00281999999999997	0.00406000000000017
0.79	1.622e-07	9.99999999999996e-06	0.000300000000000001	0.00144000000000005	0.00272000000000001	0.00414000000000011
0.795	1.75400000000001e-07	9.81999999999998e-06	0.000289999999999999	0.00138000000000006	0.00270000000000006	0.00407999999999991
0.8	1.82000000000002e-07	9.68000000000003e-06	0.000292000000000001	0.00134000000000002	0.00270000000000007	0.0039599999999998
0.805	1.79400000000002e-07	9.56000000000005e-06	0.000290000000000001	0.00128000000000004	0.00260000000000004	0.00403999999999975
0.81	1.77e-07	9.02000000000002e-06	0.000285999999999998	0.00124000000000007	0.00253999999999998	0.00405999999999977
0.815	1.71599999999999e-07	8.68000000000002e-06	0.000289999999999996	0.00128000000000004	0.0026599999999999	0.00392000000000005
0.82	1.64599999999999e-07	8.62000000000003e-06	0.000307999999999993	0.00136000000000001	0.00273999999999991	0.00386000000000027
0.825	1.71599999999998e-07	8.49999999999995e-06	0.000313999999999992	0.00142000000000003	0.00266000000000003	0.00386000000000026
0.83	1.83199999999998e-07	8.81999999999989e-06	0.000307999999999996	0.00142000000000003	0.00262000000000005	0.00380000000000019
0.835	1.922e-07	9.79999999999993e-06	0.000326000000000002	0.00139999999999998	0.00258000000000001	0.00382000000000007
0.84	2.05400000000001e-07	1.066e-05	0.000346000000000001	0.00143999999999995	0.00250000000000007	0.00385999999999997
0.845	2.02400000000001e-07	1.094e-05	0.00033	0.00141999999999996	0.00260000000000003	0.00375999999999987
0.85	1.86600000000001e-07	1.106e-05	0.000310000000000006	0.00123999999999996	0.00271999999999987	0.00367999999999979
0.855	1.79600000000001e-07	1.13e-05	0.000304000000000003	0.00119999999999995	0.00269999999999985	0.00369999999999995
0.86	1.77600000000001e-07	1.09800000000001e-05	0.000277999999999997	0.00133999999999999	0.00269999999999992	0.00362000000000015
0.865	1.76400000000001e-07	1.02600000000001e-05	0.000266000000000003	0.00136000000000001	0.00261999999999991	0.00350000000000003
0.87	1.77400000000001e-07	1.03000000000001e-05	0.000304000000000007	0.00137999999999999	0.00239999999999997	0.00351999999999991
0.875	1.71800000000001e-07	1.10000000000002e-05	0.000336000000000004	0.00146	0.00226000000000011	0.00354000000000007
0.88	1.68200000000001e-07	1.12e-05	0.000338	0.00144000000000002	0.00228000000000013	0.00352000000000005
0.885	1.72600000000001e-07	1.044e-05	0.000337999999999996	0.00133999999999999	0.00234000000000005	0.00349999999999975
0.89	1.75999999999999e-07	9.40000000000014e-06	0.000325999999999989	0.00125999999999994	0.00239999999999997	0.00347999999999959
0.895	1.97999999999998e-07	7.63333333333335e-06	0.000269999999999979	0.00119999999999993	0.00246666666666647	0.00353333333333293
0.9	1.89999999999993e-07	4.00000000000064e-06	0.000279999999999985	0.00119999999999981	0.00239999999999962	0.00319999999999903
