Vgs	Gm_Vds=0.15V	Gm_Vds=0.3V	Gm_Vds=0.45V	Gm_Vds=0.6V	Gm_Vds=0.75V	Gm_Vds=0.9V
-0.3	1.72000000000003e-09	8.12e-09	-9.59999999999996e-09	1.0184e-07	8.66000000000002e-08	-1.63760000000001e-07
-0.295	2.21833333333336e-09	9.24833333333332e-09	1.17333333333331e-09	5.68566666666665e-08	5.77100000000002e-08	-1.10713333333334e-07
-0.29	2.09600000000001e-09	1.1675e-08	7.95200000000004e-09	4.271e-08	3.81120000000002e-08	-6.41460000000002e-08
-0.285	2.28e-09	1.2122e-08	1.3508e-08	2.4948e-08	4.65360000000001e-08	-1.6862e-08
-0.28	2.148e-09	1.3152e-08	1.802e-08	1.826e-08	5.45240000000001e-08	3.73220000000001e-08
-0.275	2.427e-09	1.3151e-08	1.9062e-08	2.3212e-08	4.732e-08	6.22660000000001e-08
-0.27	3.28699999999999e-09	1.0832e-08	2.0152e-08	2.644e-08	5.235e-08	6.75579999999999e-08
-0.265	3.624e-09	9.41899999999999e-09	2.1482e-08	3.00319999999999e-08	6.04219999999999e-08	7.90439999999998e-08
-0.26	3.812e-09	1.0186e-08	2.424e-08	3.606e-08	3.88019999999999e-08	8.10859999999998e-08
-0.255	4.42e-09	1.0679e-08	2.686e-08	3.8404e-08	1.87439999999999e-08	6.9962e-08
-0.25	4.535e-09	1.0667e-08	2.2814e-08	3.559e-08	3.14379999999998e-08	7.2408e-08
-0.245	4.018e-09	1.1258e-08	1.9204e-08	3.2322e-08	4.15659999999999e-08	7.86340000000001e-08
-0.24	3.781e-09	1.1973e-08	2.0638e-08	3.211e-08	3.89880000000001e-08	7.33800000000002e-08
-0.235	4.035e-09	1.215e-08	2.0456e-08	3.0294e-08	4.45280000000001e-08	6.6068e-08
-0.23	4.346e-09	1.1707e-08	1.9624e-08	3.0406e-08	5.08440000000001e-08	7.94239999999999e-08
-0.225	4.523e-09	1.2408e-08	2.4246e-08	4.035e-08	5.34740000000001e-08	9.5196e-08
-0.22	4.706e-09	1.5557e-08	2.7116e-08	4.9444e-08	6.41980000000001e-08	7.5592e-08
-0.215	5.249e-09	1.7765e-08	2.4884e-08	4.93720000000001e-08	7.67620000000001e-08	5.78939999999999e-08
-0.21	5.863e-09	1.6993e-08	2.711e-08	5.4802e-08	8.52320000000001e-08	6.2214e-08
-0.205	6.438e-09	1.711e-08	3.0562e-08	6.231e-08	1.00036e-07	4.64140000000001e-08
-0.2	7.59e-09	1.9091e-08	2.6946e-08	5.5118e-08	1.0698e-07	3.93699999999999e-08
-0.195	8.998e-09	1.9561e-08	2.6706e-08	4.9418e-08	9.62139999999999e-08	9.41999999999997e-08
-0.19	1.0108e-08	1.9852e-08	3.3704e-08	5.7052e-08	8.88039999999999e-08	1.46232e-07
-0.185	1.1403e-08	2.2945e-08	3.3792e-08	5.9396e-08	8.9732e-08	1.55744e-07
-0.18	1.2449e-08	2.6465e-08	3.295e-08	5.8676e-08	8.83980000000001e-08	1.60902e-07
-0.175	1.337e-08	2.8603e-08	4.2184e-08	6.7812e-08	9.11600000000002e-08	1.62204e-07
-0.17	1.5529e-08	3.0709e-08	4.9494e-08	7.94459999999999e-08	1.08654e-07	1.56094e-07
-0.165	1.8276e-08	3.3719e-08	5.28620000000001e-08	9.15779999999999e-08	1.30892e-07	1.60854e-07
-0.16	2.0694e-08	3.8122e-08	6.0228e-08	1.04552e-07	1.41072e-07	1.83226e-07
-0.155	2.363e-08	4.1945e-08	6.85e-08	1.12434e-07	1.51672e-07	2.26982e-07
-0.15	2.6884e-08	4.5009e-08	7.6844e-08	1.19094e-07	1.76632e-07	2.74208e-07
-0.145	2.967e-08	5.167e-08	8.5974e-08	1.28412e-07	1.96406e-07	3.0646e-07
-0.14	3.2817e-08	6.1508e-08	9.5402e-08	1.36974e-07	2.08762e-07	3.4147e-07
-0.135	3.6673e-08	6.988e-08	1.07798e-07	1.49088e-07	2.37318e-07	3.72716e-07
-0.13	4.1199e-08	7.9139e-08	1.21202e-07	1.70968e-07	2.69972e-07	3.9185e-07
-0.125	4.6937e-08	9.292e-08	1.33392e-07	1.95042e-07	2.9526e-07	4.19194e-07
-0.12	5.433e-08	1.07424e-07	1.48934e-07	2.1721e-07	3.29212e-07	4.6195e-07
-0.115	6.351e-08	1.19887e-07	1.68588e-07	2.4754e-07	3.76118e-07	5.3724e-07
-0.11	7.4473e-08	1.33876e-07	1.89768e-07	2.87752e-07	4.31876e-07	6.37478e-07
-0.105	8.7033e-08	1.55223e-07	2.16064e-07	3.27832e-07	4.85908e-07	7.15726e-07
-0.1	1.00307e-07	1.78836e-07	2.51554e-07	3.7375e-07	5.40384e-07	7.91096e-07
-0.095	1.1437e-07	1.99166e-07	2.92134e-07	4.31814e-07	6.17044e-07	8.89968e-07
-0.09	1.30842e-07	2.26066e-07	3.32614e-07	4.91166e-07	7.07774e-07	9.87728e-07
-0.085	1.50449e-07	2.62308e-07	3.7981e-07	5.53518e-07	8.041e-07	1.108978e-06
-0.08	1.72933e-07	3.00174e-07	4.39314e-07	6.32326e-07	9.3197e-07	1.282328e-06
-0.075	1.99443e-07	3.43882e-07	5.02994e-07	7.285e-07	1.076976e-06	1.448382e-06
-0.07	2.30675e-07	4.01662e-07	5.75404e-07	8.3529e-07	1.214864e-06	1.583362e-06
-0.065	2.66301e-07	4.6779e-07	6.66556e-07	9.56616e-07	1.373848e-06	1.7696e-06
-0.06	3.0696e-07	5.41038e-07	7.66152e-07	1.097404e-06	1.559622e-06	2.0364e-06
-0.055	3.54791e-07	6.26832e-07	8.72244e-07	1.257736e-06	1.782036e-06	2.3306e-06
-0.05	4.12423e-07	7.2388e-07	1.00013e-06	1.441252e-06	2.055246e-06	2.705e-06
-0.045	4.80174e-07	8.32988e-07	1.153724e-06	1.67152e-06	2.355914e-06	3.1756e-06
-0.04	5.56484e-07	9.58786e-07	1.334784e-06	1.937848e-06	2.709814e-06	3.6274e-06
-0.035	6.44268e-07	1.106598e-06	1.54738e-06	2.21461e-06	3.139758e-06	4.1158e-06
-0.03	7.47902e-07	1.277044e-06	1.789876e-06	2.531032e-06	3.6302e-06	4.7386e-06
-0.025	8.6627e-07	1.477186e-06	2.071364e-06	2.910358e-06	4.1978e-06	5.4464e-06
-0.02	1.001452e-06	1.713808e-06	2.387418e-06	3.339258e-06	4.8466e-06	6.264e-06
-0.015	1.162738e-06	1.981172e-06	2.760718e-06	3.836994e-06	5.5582e-06	7.239e-06
-0.01	1.354932e-06	2.287766e-06	3.216462e-06	4.4466e-06	6.3956e-06	8.3286e-06
-0.005	1.576594e-06	2.65449e-06	3.725592e-06	5.1354e-06	7.3646e-06	9.5632e-06
0	1.830264e-06	3.079358e-06	4.29135e-06	5.9104e-06	8.4494e-06	1.10312e-05
0.005	2.128974e-06	3.557778e-06	4.964e-06	6.8166e-06	9.7366e-06	1.2704e-05
0.01	2.476022e-06	4.092728e-06	5.7506e-06	7.8668e-06	1.12376e-05	1.46014e-05
0.015	2.863226e-06	4.698732e-06	6.6476e-06	9.1524e-06	1.2964e-05	1.68772e-05
0.02	3.307496e-06	5.4476e-06	7.6986e-06	1.06422e-05	1.4992e-05	1.95322e-05
0.025	3.839708e-06	6.3448e-06	8.9492e-06	1.22608e-05	1.73708e-05	2.25052e-05
0.03	4.467402e-06	7.3472e-06	1.03988e-05	1.4147e-05	2.00724e-05	2.59458e-05
0.035	5.188564e-06	8.5326e-06	1.20108e-05	1.63566e-05	2.33088e-05	2.99652e-05
0.04	6.0288e-06	9.997e-06	1.3859e-05	1.88852e-05	2.71984e-05	3.44734e-05
0.045	6.988e-06	1.16798e-05	1.6042e-05	2.18648e-05	3.1473e-05	3.97208e-05
0.05	8.0964e-06	1.34666e-05	1.85364e-05	2.5375e-05	3.62814e-05	4.59556e-05
0.055	9.4366e-06	1.54914e-05	2.1468e-05	2.93702e-05	4.19526e-05	5.2984e-05
0.06	1.09938e-05	1.78984e-05	2.49468e-05	3.40574e-05	4.825e-05	6.084e-05
0.065	1.27414e-05	2.05592e-05	2.8886e-05	3.93268e-05	5.5103e-05	6.9962e-05
0.07	1.47938e-05	2.35012e-05	3.34254e-05	4.5066e-05	6.3252e-05	8.0557e-05
0.075	1.72414e-05	2.71168e-05	3.87372e-05	5.18444e-05	7.3084e-05	9.2561e-05
0.08	2.00148e-05	3.15638e-05	4.47634e-05	5.9944e-05	8.4322e-05	0.000106403
0.085	2.32812e-05	3.67064e-05	5.1694e-05	6.9179e-05	9.7177e-05	0.000122611
0.09	2.7319e-05	4.26352e-05	5.973e-05	7.9734e-05	0.000111946	0.000141252
0.095	3.19014e-05	4.9419e-05	6.9124e-05	9.2017e-05	0.00012893	0.00016251
0.1	3.70246e-05	5.7303e-05	8.0073e-05	0.00010623	0.000148855	0.000187346
0.105	4.29848e-05	6.6579e-05	9.24e-05	0.000122512	0.000172724	0.000217148
0.11	4.981e-05	7.7248e-05	0.00010654	0.000141162	0.000199094	0.000250351
0.115	5.76448e-05	8.9578e-05	0.000122947	0.000162859	0.000227199	0.000285739
0.12	6.6613e-05	0.000103793	0.000141861	0.000188161	0.000259762	0.000326777
0.125	7.6698e-05	0.000119904	0.000163594	0.000217173	0.000297276	0.000374134
0.13	8.8311e-05	0.000138551	0.000189225	0.000249952	0.000339141	0.000426229
0.135	0.00010206	0.000160333	0.000219034	0.000286841	0.000388188	0.000487338
0.14	0.000118019	0.000185369	0.000252398	0.000328656	0.000446102	0.000561
0.145	0.000136291	0.000214525	0.000290498	0.000376354	0.000511195	0.0006435
0.15	0.000157301	0.00024819	0.000333274	0.000430895	0.00058292	0.000735
0.155	0.000181899	0.000284945	0.000380417	0.000494652	0.0006636	0.00084252
0.16	0.000210422	0.000326068	0.000436211	0.00056912	0.00075852	0.00096544
0.165	0.000242941	0.000375026	0.000501695	0.00065358	0.00086922	0.00110126
0.17	0.000280148	0.000430476	0.00057358	0.00074842	0.00099342	0.0012578
0.175	0.00032228	0.000492523	0.00065632	0.0008582	0.00113606	0.00144308
0.18	0.000369726	0.00056554	0.0007531	0.0009844	0.00129878	0.00165132
0.185	0.00042369	0.00064952	0.000862299999999999	0.00112738	0.0014802	0.00188022
0.19	0.000485284	0.00074334	0.00098838	0.00129206	0.00168546	0.00214614
0.195	0.0005563	0.00084924	0.00113342	0.0014799	0.00192098	0.002453
0.2	0.00063798	0.00097026	0.0012938	0.00168976	0.00219442	0.00278842
0.205	0.00073042	0.00111088	0.0014775	0.00192956	0.0025092	0.00315974
0.21	0.00083426	0.00127126	0.00168864	0.00220696	0.0028614	0.00359276
0.215	0.00095244	0.0014526	0.00192368	0.00251836	0.00325692	0.00408348
0.22	0.00108886	0.0016608	0.00219662	0.00286874	0.00369818	0.0046171
0.225	0.00124566	0.00189666	0.0025158	0.0032703	0.00418452	0.0052142
0.23	0.00142506	0.00216224	0.0028685	0.00371772	0.00472846	0.0058896
0.235	0.00162778	0.00246594	0.00325688	0.00420474	0.0053384	0.0066312
0.24	0.00185474	0.00281264	0.00370512	0.00474708	0.0060144	0.0074476
0.245	0.00211194	0.00319606	0.0042001	0.0053518	0.0067594	0.0083574
0.25	0.00240772	0.00362656	0.00473238	0.0060266	0.00759299999999999	0.00936459999999999
0.255	0.00274112	0.00411506	0.0053452	0.00678639999999999	0.00852219999999999	0.0104406
0.26	0.0031153	0.00465484	0.00604039999999999	0.00763359999999999	0.00952439999999999	0.0115768
0.265	0.00353828	0.0052502	0.00679739999999999	0.00856019999999999	0.0106084	0.012849
0.27	0.00400934	0.0059216	0.0076388	0.00957060000000001	0.0118184	0.0142758
0.275	0.00452756000000001	0.00667120000000001	0.00856580000000002	0.0106784	0.013138	0.015785
0.28	0.00510540000000001	0.00749640000000001	0.00956100000000001	0.0118858	0.014532	0.01741
0.285	0.00575320000000001	0.00840260000000001	0.0106518	0.0131816	0.016036	0.0191568
0.29	0.00646720000000001	0.00938920000000001	0.0118496	0.0145726	0.0176716	0.0209636
0.295	0.0072518	0.0105036	0.01313	0.0160794	0.0194122	0.022926
0.3	0.00811559999999999	0.011752	0.0145856	0.0176774	0.0212186	0.025038
0.305	0.00905079999999999	0.0130058	0.0161514	0.0193594	0.0230864	0.027185
0.31	0.0100568	0.0142294	0.0176772	0.0211582	0.025089	0.0294454
0.315	0.01115	0.0156028	0.0193094	0.0230676	0.027343	0.0318458
0.32	0.0123278	0.0171414	0.0210962	0.0251178	0.0296614	0.034252
0.325	0.0135826	0.0187084	0.0228862	0.0272728	0.031845	0.03668
0.33	0.0149272	0.0204342	0.0247884	0.0294476	0.034176	0.039252
0.335	0.0163634	0.0223954	0.0269366	0.0316202	0.0367060000000001	0.0419600000000001
0.34	0.01789	0.0243866	0.0291814	0.0339240000000001	0.0392060000000001	0.0447540000000001
0.345	0.0194934	0.026361	0.0314548	0.0364600000000001	0.0419720000000001	0.0475820000000001
0.35	0.0211488	0.0284558	0.033802	0.039062	0.044968	0.0504180000000001
0.355	0.022881	0.0306502	0.036212	0.041674	0.047626	0.05328
0.36	0.024705	0.032776	0.038824	0.044434	0.050196	0.056106
0.365	0.0265778	0.03488	0.041518	0.047232	0.052898	0.0589459999999999
0.37	0.0284914	0.037158	0.043984	0.049872	0.055486	0.0619559999999999
0.375	0.03047	0.039532	0.04644	0.052506	0.0581879999999999	0.0650399999999999
0.38	0.032474	0.041938	0.049242	0.0554319999999999	0.0612379999999999	0.0680219999999999
0.385	0.034486	0.044636	0.052134	0.058656	0.0643339999999999	0.0710019999999999
0.39	0.036556	0.047504	0.054666	0.061722	0.0673159999999999	0.0739539999999999
0.395	0.038644	0.05005	0.057116	0.064528	0.07025	0.076722
0.4	0.0407300000000001	0.0524400000000001	0.0598100000000001	0.0673620000000001	0.0730900000000001	0.0794120000000001
0.405	0.0428560000000001	0.0550060000000001	0.0624120000000001	0.0703380000000001	0.0758240000000001	0.0822420000000001
0.41	0.0449640000000001	0.0575300000000001	0.0647540000000001	0.0730460000000001	0.0782920000000001	0.0851920000000001
0.415	0.046986	0.0599260000000001	0.0674060000000001	0.0753580000000001	0.0805940000000001	0.0879960000000001
0.42	0.048994	0.062518	0.070424	0.077838	0.083036	0.090586
0.425	0.051016	0.065248	0.0732859999999999	0.08044	0.0856339999999999	0.0933639999999999
0.43	0.052954	0.0679199999999999	0.076162	0.0827499999999999	0.0883419999999999	0.0962419999999999
0.435	0.0548	0.0705199999999999	0.0790219999999999	0.0850799999999999	0.0912139999999999	0.0985739999999999
0.44	0.05662	0.0731259999999999	0.0814259999999999	0.0878439999999999	0.0941599999999999	0.100922
0.445	0.058394	0.0756399999999999	0.0837699999999999	0.0906019999999999	0.0968699999999999	0.103812
0.45	0.0600439999999999	0.0778339999999999	0.0862739999999999	0.0931319999999999	0.0995139999999999	0.10645
0.455	0.06162	0.0799240000000001	0.08842	0.095574	0.102214	0.108606
0.46	0.0631540000000001	0.0820960000000001	0.0905260000000001	0.0982040000000002	0.10473	0.110834
0.465	0.0645620000000001	0.0842780000000001	0.0930560000000002	0.100918	0.107062	0.113062
0.47	0.0658760000000001	0.0864440000000001	0.0955160000000002	0.103158	0.109336	0.114948
0.475	0.0671320000000001	0.0887760000000001	0.0979420000000001	0.105268	0.111382	0.11664
0.48	0.068248	0.091276	0.100516	0.107436	0.11304	0.11852
0.485	0.0692579999999999	0.0935079999999999	0.102704	0.109194	0.11468	0.12058
0.49	0.0701979999999999	0.0954019999999999	0.10468	0.110962	0.11646	0.1224
0.495	0.070998	0.0974319999999999	0.10682	0.11308	0.11834	0.12408
0.5	0.0716899999999999	0.0993579999999999	0.108698	0.115	0.12026	0.12588
0.505	0.072276	0.100764	0.110262	0.11678	0.12212	0.12754
0.51	0.072732	0.10219	0.11196	0.11862	0.12396	0.1291
0.515	0.0731379999999999	0.103834	0.11372	0.12012	0.12618	0.13074
0.52	0.0734539999999999	0.10524	0.11572	0.12158	0.1282	0.13242
0.525	0.0737559999999999	0.10674	0.11764	0.12332	0.12926	0.134
0.53	0.0740919999999999	0.10842	0.11878	0.12488	0.13038	0.13532
0.535	0.0741999999999999	0.10984	0.11998	0.12644	0.13186	0.13654
0.54	0.074094	0.11102	0.12162	0.12826	0.13292	0.13782
0.545	0.073886	0.11208	0.12278	0.1299	0.13388	0.13898
0.55	0.0734500000000001	0.11298	0.12386	0.13122	0.13544	0.14016
0.555	0.0728980000000002	0.11382	0.12576	0.13266	0.137100000000001	0.14158
0.56	0.0723600000000002	0.11476	0.12744	0.134440000000001	0.13844	0.14264
0.565	0.0717800000000002	0.1156	0.1285	0.135940000000001	0.13954	0.14346
0.57	0.0712000000000002	0.11642	0.12966	0.136580000000001	0.14056	0.14458
0.575	0.0705200000000001	0.11728	0.13064	0.1372	0.14172	0.14566
0.58	0.06976	0.1179	0.13146	0.13828	0.14282	0.14664
0.585	0.0691	0.11832	0.1326	0.13882	0.14352	0.14784
0.59	0.0683399999999999	0.1188	0.13424	0.13928	0.14418	0.14888
0.595	0.0674599999999999	0.11918	0.13558	0.14082	0.14538	0.14952
0.6	0.0666999999999999	0.11938	0.13606	0.14252	0.1466	0.15018
0.605	0.06586	0.1195	0.1366	0.1435	0.14756	0.1508
0.61	0.06488	0.11958	0.13744	0.14432	0.1487	0.1514
0.615	0.06398	0.11992	0.1381	0.1451	0.14976	0.15222
0.62	0.06304	0.12016	0.13866	0.1455	0.15032	0.15304
0.625	0.06202	0.11984	0.1395	0.14588	0.15074	0.15374
0.63	0.0610599999999999	0.11944	0.14032	0.14654	0.15122	0.15446
0.635	0.0600599999999999	0.11918	0.14066	0.14726	0.15182	0.1555
0.64	0.05898	0.11858	0.14054	0.14794	0.15234	0.15628
0.645	0.0579599999999999	0.11786	0.14068	0.14884	0.15264	0.15666
0.65	0.0569199999999999	0.11744	0.14142	0.1497	0.15324	0.15716
0.655	0.0558199999999999	0.11704	0.14206	0.15016	0.1541	0.15714
0.66	0.0547999999999999	0.1165	0.1426	0.1506	0.15468	0.15676
0.665	0.05382	0.11588	0.14318	0.1512	0.15526	0.15696
0.67	0.0527	0.1152	0.1436	0.15202	0.15606	0.15736
0.675	0.0516200000000001	0.11444	0.14386	0.15278	0.15654	0.1576
0.68	0.0507800000000002	0.11356	0.143960000000001	0.15294	0.156760000000001	0.158540000000001
0.685	0.0498600000000002	0.11252	0.14402	0.15296	0.157080000000001	0.159500000000001
0.69	0.0487800000000001	0.11142	0.14458	0.15322	0.157380000000001	0.159740000000001
0.695	0.0478800000000002	0.11028	0.14546	0.1533	0.157640000000001	0.160080000000001
0.7	0.0470200000000001	0.10902	0.14534	0.15332	0.15796	0.16054
0.705	0.0459199999999999	0.10774	0.14438	0.15378	0.15826	0.16078
0.71	0.0449399999999999	0.10654	0.14394	0.15452	0.15864	0.16108
0.715	0.04416	0.10532	0.14336	0.15512	0.1591	0.16154
0.72	0.0432599999999999	0.10402	0.14212	0.1552	0.15932	0.1618
0.725	0.0422999999999999	0.1028	0.14192	0.15516	0.15952	0.16186
0.73	0.04144	0.1017	0.14272	0.1556	0.16002	0.16198
0.735	0.04052	0.10048	0.1429	0.15576	0.16024	0.16202
0.74	0.03958	0.09904	0.14254	0.1555	0.16018	0.16192
0.745	0.0388	0.09762	0.14224	0.15566	0.16056	0.16214
0.75	0.038	0.09628	0.1418	0.1561	0.161	0.16258
0.755	0.03716	0.09472	0.14098	0.15618	0.16122	0.16256
0.76	0.0364799999999999	0.0931599999999999	0.14008	0.15606	0.16192	0.16246
0.765	0.0358199999999999	0.0918199999999999	0.13922	0.15596	0.16266	0.1628
0.77	0.03504	0.0903599999999999	0.13846	0.15566	0.1628	0.16294
0.775	0.0343	0.0888399999999999	0.13792	0.15492	0.16272	0.16276
0.78	0.03354	0.0874999999999999	0.13738	0.1541	0.16242	0.16292
0.785	0.0327	0.0860999999999999	0.13662	0.15388	0.16188	0.16324
0.79	0.03194	0.0845999999999999	0.1358	0.15414	0.1616	0.1633
0.795	0.03132	0.0832799999999998	0.13496	0.15436	0.16148	0.16326
0.8	0.0307800000000001	0.0819599999999999	0.13392	0.1545	0.16138	0.16326
0.805	0.0302000000000001	0.0805000000000002	0.1328	0.154720000000001	0.161580000000001	0.163420000000001
0.81	0.0295400000000001	0.0790800000000003	0.13168	0.154860000000001	0.161280000000001	0.16362
0.815	0.0289	0.0777200000000004	0.13068	0.154780000000001	0.16038	0.16374
0.82	0.0283000000000001	0.0763200000000004	0.129720000000001	0.154520000000001	0.16048	0.16384
0.825	0.02772	0.0749400000000002	0.12852	0.15436	0.16142	0.16384
0.83	0.02718	0.0736799999999999	0.12734	0.1543	0.16172	0.16372
0.835	0.02658	0.0723999999999999	0.12632	0.1539	0.16198	0.16372
0.84	0.02596	0.0710199999999999	0.12504	0.15318	0.16274	0.16374
0.845	0.02542	0.0697199999999999	0.12376	0.15262	0.16256	0.16362
0.85	0.02482	0.0685	0.12268	0.15224	0.16154	0.16372
0.855	0.02426	0.0672000000000001	0.12118	0.15182	0.16104	0.16436
0.86	0.0239	0.0658999999999999	0.11942	0.15132	0.16096	0.16464
0.865	0.0235	0.0647399999999999	0.11796	0.15072	0.16072	0.16382
0.87	0.02294	0.0635599999999999	0.11632	0.15006	0.16074	0.16368
0.875	0.02242	0.0622599999999998	0.1146	0.14948	0.16086	0.16412
0.88	0.0219	0.0610199999999998	0.11364	0.14886	0.16014	0.16334
0.885	0.02142	0.0598399999999999	0.1128	0.14818	0.15946	0.16302
0.89	0.02114	0.0587199999999999	0.11158	0.14774	0.15946	0.16444
0.895	0.0208333333333332	0.0576333333333332	0.110566666666667	0.147366666666666	0.1583	0.1647
0.9	0.0209999999999998	0.0567999999999999	0.1088	0.147	0.16	0.167199999999999
