Vgs	Gm_Vds=0.01V	Gm_Vds=0.02V	Gm_Vds=0.03V	Gm_Vds=0.04V	Gm_Vds=0.05V	Gm_Vds=0.06V	Gm_Vds=0.07V	Gm_Vds=0.08V	Gm_Vds=0.09V	Gm_Vds=0.1V
-0.3	1.64000000000001e-10	-6.94e-10	6.98e-10	3.87599999999999e-09	5.69999999999999e-10	1.176e-09	3.31e-09	1.73400000000001e-09	1.704e-09	3.09799999999999e-09
-0.295	1.50833333333333e-10	1.83333333333333e-10	9.55333333333333e-10	3.34683333333333e-09	1.13783333333333e-09	2.10383333333333e-09	3.48033333333333e-09	2.48516666666667e-09	2.68333333333333e-09	3.77316666666666e-09
-0.29	4.60500000000002e-10	8.27000000000003e-10	1.4536e-09	3.1787e-09	2.17450000000001e-09	2.90840000000001e-09	3.96650000000001e-09	3.58080000000001e-09	3.77230000000001e-09	4.83910000000001e-09
-0.285	7.25500000000001e-10	1.4294e-09	1.9351e-09	3.0866e-09	2.96310000000001e-09	3.72040000000001e-09	4.42390000000001e-09	4.56020000000001e-09	4.89140000000001e-09	5.78290000000001e-09
-0.28	9.92800000000001e-10	1.9112e-09	2.446e-09	3.2507e-09	3.82290000000001e-09	4.55300000000001e-09	5.10820000000001e-09	5.58280000000001e-09	6.05220000000001e-09	6.83500000000001e-09
-0.275	1.2661e-09	2.2413e-09	2.9965e-09	3.6549e-09	4.69650000000001e-09	5.28070000000001e-09	5.89710000000001e-09	6.56240000000001e-09	7.14360000000001e-09	7.95310000000001e-09
-0.27	1.5273e-09	2.632e-09	3.6108e-09	4.1669e-09	5.4722e-09	6.107e-09	6.6773e-09	7.605e-09	8.3121e-09	9.1055e-09
-0.265	1.7394e-09	3.0451e-09	4.1759e-09	4.8704e-09	6.2516e-09	7.09289999999999e-09	7.63089999999999e-09	8.72459999999999e-09	9.58659999999999e-09	1.03123e-08
-0.26	1.9406e-09	3.4494e-09	4.7476e-09	5.73719999999999e-09	7.24609999999999e-09	8.11179999999999e-09	8.77019999999999e-09	9.97879999999999e-09	1.09595e-08	1.1772e-08
-0.255	2.2355e-09	4.0237e-09	5.4805e-09	6.61479999999999e-09	8.38319999999999e-09	9.23709999999999e-09	9.92499999999999e-09	1.14828e-08	1.25214e-08	1.34788e-08
-0.25	2.625e-09	4.6866e-09	6.30189999999999e-09	7.65499999999999e-09	9.52869999999999e-09	1.05954e-08	1.12269e-08	1.31507e-08	1.42478e-08	1.53233e-08
-0.245	2.9968e-09	5.2904e-09	7.154e-09	8.8856e-09	1.08224e-08	1.20855e-08	1.28827e-08	1.49092e-08	1.6181e-08	1.7327e-08
-0.24	3.4306e-09	5.9395e-09	8.21790000000001e-09	1.01775e-08	1.23825e-08	1.36542e-08	1.47763e-08	1.69554e-08	1.84183e-08	1.96692e-08
-0.235	3.98e-09	6.7537e-09	9.5099e-09	1.16548e-08	1.40636e-08	1.55171e-08	1.68788e-08	1.93281e-08	2.09834e-08	2.25211e-08
-0.23	4.5359e-09	7.5985e-09	1.08705e-08	1.3406e-08	1.59199e-08	1.77115e-08	1.94438e-08	2.19003e-08	2.38384e-08	2.57972e-08
-0.225	5.1153e-09	8.5055e-09	1.24344e-08	1.53812e-08	1.8137e-08	2.00998e-08	2.24094e-08	2.48096e-08	2.70502e-08	2.94983e-08
-0.22	5.853e-09	9.6977e-09	1.4273e-08	1.76389e-08	2.06722e-08	2.27643e-08	2.56024e-08	2.83021e-08	3.08763e-08	3.37431e-08
-0.215	6.6685e-09	1.1282e-08	1.63068e-08	2.01817e-08	2.34579e-08	2.59627e-08	2.93199e-08	3.2422e-08	3.53054e-08	3.8509e-08
-0.21	7.5232e-09	1.31864e-08	1.8607e-08	2.30017e-08	2.65642e-08	2.96687e-08	3.36347e-08	3.70659e-08	4.02625e-08	4.375e-08
-0.205	8.5816e-09	1.52629e-08	2.13189e-08	2.62615e-08	3.02094e-08	3.39238e-08	3.83409e-08	4.23341e-08	4.605e-08	4.9643e-08
-0.2	9.8131e-09	1.75912e-08	2.43448e-08	2.9964e-08	3.45221e-08	3.8868e-08	4.3701e-08	4.8389e-08	5.2856e-08	5.634e-08
-0.195	1.12244e-08	2.03008e-08	2.76466e-08	3.41087e-08	3.94686e-08	4.44338e-08	4.9887e-08	5.5333e-08	6.0302e-08	6.4054e-08
-0.19	1.2876e-08	2.32369e-08	3.14528e-08	3.87779e-08	4.51805e-08	5.0907e-08	5.675e-08	6.3165e-08	6.8387e-08	7.3083e-08
-0.185	1.48005e-08	2.65703e-08	3.58468e-08	4.41777e-08	5.1814e-08	5.8469e-08	6.4663e-08	7.1844e-08	7.7656e-08	8.3371e-08
-0.18	1.70344e-08	3.07082e-08	4.08812e-08	5.0345e-08	5.9336e-08	6.6883e-08	7.382e-08	8.1605e-08	8.8161e-08	9.4909e-08
-0.175	1.96071e-08	3.52348e-08	4.66512e-08	5.7215e-08	6.7769e-08	7.6411e-08	8.4074e-08	9.2929e-08	9.9996e-08	1.08385e-07
-0.17	2.25156e-08	4.00675e-08	5.3313e-08	6.5342e-08	7.7207e-08	8.7513e-08	9.5804e-08	1.0598e-07	1.13906e-07	1.23977e-07
-0.165	2.57588e-08	4.57809e-08	6.0996e-08	7.5025e-08	8.8226e-08	1.00083e-07	1.09345e-07	1.2067e-07	1.30157e-07	1.41261e-07
-0.16	2.95082e-08	5.2068e-08	6.9609e-08	8.564e-08	1.00884e-07	1.13956e-07	1.24582e-07	1.37324e-07	1.4871e-07	1.60922e-07
-0.155	3.38014e-08	5.8717e-08	7.9296e-08	9.7643e-08	1.14957e-07	1.29526e-07	1.42096e-07	1.56411e-07	1.70243e-07	1.83651e-07
-0.15	3.85267e-08	6.6496e-08	9.05610000000001e-08	1.1209e-07	1.31113e-07	1.47144e-07	1.62368e-07	1.78607e-07	1.9491e-07	2.09433e-07
-0.145	4.3825e-08	7.5597e-08	1.03418e-07	1.27967e-07	1.49746e-07	1.66926e-07	1.85212e-07	2.04334e-07	2.22836e-07	2.39429e-07
-0.14	5.0083e-08	8.5792e-08	1.18035e-07	1.45493e-07	1.70708e-07	1.89072e-07	2.11323e-07	2.33939e-07	2.54499e-07	2.74016e-07
-0.135	5.7167e-08	9.7888e-08	1.3506e-07	1.66051e-07	1.94856e-07	2.13914e-07	2.41558e-07	2.67919e-07	2.90574e-07	3.12693e-07
-0.13	6.5203e-08	1.12503e-07	1.54367e-07	1.89446e-07	2.23187e-07	2.43679e-07	2.76017e-07	3.06581e-07	3.31525e-07	3.56773e-07
-0.125	7.4544e-08	1.29059e-07	1.76095e-07	2.16775e-07	2.55355e-07	2.79522e-07	3.14855e-07	3.50686e-07	3.7746e-07	4.07073e-07
-0.12	8.5144e-08	1.47798e-07	2.01763e-07	2.48869e-07	2.91552e-07	3.20544e-07	3.59159e-07	4.00138e-07	4.29594e-07	4.63587e-07
-0.115	9.741e-08	1.69782e-07	2.31877e-07	2.84937e-07	3.32973e-07	3.67673e-07	4.1041e-07	4.55268e-07	4.90148e-07	5.27738e-07
-0.11	1.1136e-07	1.94928e-07	2.65439e-07	3.25435e-07	3.80249e-07	4.21303e-07	4.69059e-07	5.1836e-07	5.595e-07	6.01598e-07
-0.105	1.27272e-07	2.22873e-07	3.02128e-07	3.71458e-07	4.33536e-07	4.8045e-07	5.34862e-07	5.91106e-07	6.36948e-07	6.8618e-07
-0.1	1.45519e-07	2.55513e-07	3.4344e-07	4.23086e-07	4.9439e-07	5.46316e-07	6.09832e-07	6.74706e-07	7.26528e-07	7.82426e-07
-0.095	1.65906e-07	2.93169e-07	3.91655e-07	4.82314e-07	5.65268e-07	6.23776e-07	6.96226e-07	7.70082e-07	8.30274e-07	8.9325e-07
-0.09	1.89502e-07	3.34471e-07	4.46331e-07	5.51006e-07	6.4631e-07	7.1632e-07	7.94802e-07	8.78442e-07	9.46488e-07	1.021092e-06
-0.085	2.18504e-07	3.80614e-07	5.08216e-07	6.30316e-07	7.37354e-07	8.23856e-07	9.08218e-07	1.004208e-06	1.08024e-06	1.165536e-06
-0.08	2.51644e-07	4.32559e-07	5.80352e-07	7.21892e-07	8.41308e-07	9.46852e-07	1.037862e-06	1.146082e-06	1.234694e-06	1.328566e-06
-0.075	2.87142e-07	4.92635e-07	6.63452e-07	8.26054e-07	9.60888e-07	1.087292e-06	1.18525e-06	1.302874e-06	1.409258e-06	1.515268e-06
-0.07	3.28191e-07	5.64824e-07	7.59014e-07	9.4418e-07	1.097592e-06	1.244224e-06	1.354132e-06	1.483134e-06	1.608016e-06	1.726816e-06
-0.065	3.75738e-07	6.48544e-07	8.7018e-07	1.078674e-06	1.253736e-06	1.41715e-06	1.546648e-06	1.690536e-06	1.834924e-06	1.969216e-06
-0.06	4.28069e-07	7.42728e-07	9.95568e-07	1.230888e-06	1.43386e-06	1.612428e-06	1.767176e-06	1.926568e-06	2.09473e-06	2.251276e-06
-0.055	4.86837e-07	8.51416e-07	1.136402e-06	1.401266e-06	1.637692e-06	1.836242e-06	2.023888e-06	2.200154e-06	2.397386e-06	2.574384e-06
-0.05	5.55838e-07	9.76634e-07	1.300354e-06	1.5976e-06	1.865886e-06	2.09151e-06	2.31287e-06	2.51549e-06	2.7369e-06	2.948792e-06
-0.045	6.36822e-07	1.116128e-06	1.490922e-06	1.82545e-06	2.130778e-06	2.389598e-06	2.638198e-06	2.877838e-06	3.118872e-06	3.381828e-06
-0.04	7.30016e-07	1.272008e-06	1.7069e-06	2.082526e-06	2.437264e-06	2.735324e-06	3.011386e-06	3.292392e-06	3.569474e-06	3.87182e-06
-0.035	8.35382e-07	1.454702e-06	1.951478e-06	2.375872e-06	2.781692e-06	3.132768e-06	3.436932e-06	3.759392e-06	4.080712e-06	4.425314e-06
-0.03	9.53008e-07	1.666204e-06	2.23333e-06	2.722932e-06	3.168418e-06	3.58787e-06	3.92126e-06	4.295862e-06	4.659716e-06	5.0482e-06
-0.025	1.089672e-06	1.898338e-06	2.557204e-06	3.129892e-06	3.614692e-06	4.106246e-06	4.483586e-06	4.917e-06	5.3214e-06	5.7586e-06
-0.02	1.246574e-06	2.161102e-06	2.919916e-06	3.593484e-06	4.126932e-06	4.684942e-06	5.1374e-06	5.6226e-06	6.063e-06	6.5792e-06
-0.015	1.418202e-06	2.468912e-06	3.3353e-06	4.115528e-06	4.702196e-06	5.3424e-06	5.8714e-06	6.4174e-06	6.919e-06	7.518e-06
-0.01	1.616614e-06	2.804176e-06	3.81967e-06	4.69674e-06	5.3612e-06	6.1024e-06	6.6916e-06	7.3238e-06	7.903e-06	8.5956e-06
-0.005	1.852578e-06	3.18891e-06	4.369236e-06	5.3682e-06	6.1368e-06	6.9514e-06	7.635e-06	8.3788e-06	8.9976e-06	9.835e-06
0	2.119522e-06	3.65311e-06	4.990818e-06	6.146e-06	7.03e-06	7.925e-06	8.7408e-06	9.5736e-06	1.02584e-05	1.12398e-05
0.005	2.430646e-06	4.186312e-06	5.714e-06	7.0006e-06	8.038e-06	9.0714e-06	1.00006e-05	1.0901e-05	1.17498e-05	1.28274e-05
0.01	2.791802e-06	4.791334e-06	6.5336e-06	7.9686e-06	9.1676e-06	1.03746e-05	1.14262e-05	1.24522e-05	1.34346e-05	1.46194e-05
0.015	3.18348e-06	5.4886e-06	7.4386e-06	9.1252e-06	1.04562e-05	1.18832e-05	1.3063e-05	1.4276e-05	1.5347e-05	1.66766e-05
0.02	3.623512e-06	6.2594e-06	8.5178e-06	1.04448e-05	1.19584e-05	1.36038e-05	1.49272e-05	1.63164e-05	1.7593e-05	1.90614e-05
0.025	4.145006e-06	7.1264e-06	9.802e-06	1.1905e-05	1.3655e-05	1.54848e-05	1.70246e-05	1.86528e-05	2.0177e-05	2.17832e-05
0.03	4.754638e-06	8.1594e-06	1.11852e-05	1.35786e-05	1.55708e-05	1.7655e-05	1.94294e-05	2.1378e-05	2.30316e-05	2.48444e-05
0.035	5.42e-06	9.3322e-06	1.2749e-05	1.55004e-05	1.78016e-05	2.02294e-05	2.22302e-05	2.44478e-05	2.62642e-05	2.83556e-05
0.04	6.1568e-06	1.05992e-05	1.46164e-05	1.7726e-05	2.04008e-05	2.3077e-05	2.53922e-05	2.79234e-05	3.00834e-05	3.24242e-05
0.045	7.0232e-06	1.20512e-05	1.67004e-05	2.03538e-05	2.33746e-05	2.62714e-05	2.89654e-05	3.1913e-05	3.43964e-05	3.71024e-05
0.05	7.9842e-06	1.37406e-05	1.90438e-05	2.328e-05	2.6682e-05	3.00428e-05	3.3086e-05	3.6351e-05	3.91942e-05	4.23582e-05
0.055	9.0676e-06	1.56286e-05	2.17668e-05	2.64736e-05	3.037e-05	3.42308e-05	3.77784e-05	4.12954e-05	4.46328e-05	4.8267e-05
0.06	1.04076e-05	1.78766e-05	2.47912e-05	3.01934e-05	3.46666e-05	3.89086e-05	4.31074e-05	4.70636e-05	5.0896e-05	5.5145e-05
0.065	1.19616e-05	2.06152e-05	2.8117e-05	3.44402e-05	3.96008e-05	4.44326e-05	4.92722e-05	5.3693e-05	5.8067e-05	6.2912e-05
0.07	1.36426e-05	2.36844e-05	3.19162e-05	3.9153e-05	4.50858e-05	5.0778e-05	5.6347e-05	6.1272e-05	6.6157e-05	7.1478e-05
0.075	1.5594e-05	2.70812e-05	3.63068e-05	4.45614e-05	5.1293e-05	5.7974e-05	6.4198e-05	6.9983e-05	7.5409e-05	8.1323e-05
0.08	1.7807e-05	3.0869e-05	4.13482e-05	5.0916e-05	5.8594e-05	6.6235e-05	7.3012e-05	7.9856e-05	8.6124e-05	9.2901e-05
0.085	2.01664e-05	3.50436e-05	4.71508e-05	5.821e-05	6.7053e-05	7.5651e-05	8.3192e-05	9.101e-05	9.8169e-05	0.000106002
0.09	2.2876e-05	3.9774e-05	5.3874e-05	6.6597e-05	7.6396e-05	8.6303e-05	9.4845e-05	0.000103643	0.000111604	0.000120715
0.095	2.6051e-05	4.51778e-05	6.1478e-05	7.6061e-05	8.6821e-05	9.8211e-05	0.000107977	0.000117904	0.000126896	0.000137637
0.1	2.95986e-05	5.1607e-05	7.0097e-05	8.6508e-05	9.9321e-05	0.000111759	0.000122977	0.000134287	0.000144197	0.000156933
0.105	3.37234e-05	5.9224e-05	7.997e-05	9.8441e-05	0.000113702	0.000127287	0.000140041	0.000153307	0.000164271	0.000178268
0.11	3.85724e-05	6.7579e-05	9.1129e-05	0.000112236	0.000129204	0.000144917	0.000159154	0.000174964	0.000187362	0.000202529
0.115	4.37846e-05	7.6444e-05	0.00010351	0.000127705	0.00014686	0.000165163	0.000181047	0.000198837	0.00021338	0.000230829
0.12	4.9487e-05	8.6479e-05	0.000117551	0.00014501	0.000167249	0.000188109	0.00020669	0.000225419	0.000242964	0.000261925
0.125	5.6026e-05	9.7971e-05	0.00013365	0.000164613	0.00018969	0.000213835	0.000235575	0.000256136	0.000276544	0.00029633
0.13	6.327e-05	0.000111319	0.00015167	0.000186592	0.00021518	0.000243509	0.000267586	0.0002909	0.000314035	0.000337225
0.135	7.15220000000001e-05	0.000127079	0.000172137	0.000211345	0.000244765	0.000276843	0.000304094	0.000329659	0.000356003	0.000384588
0.14	8.1134e-05	0.000144905	0.000195494	0.00023878	0.000277646	0.000313177	0.000344884	0.000374237	0.000403555	0.000435951
0.145	9.1805e-05	0.000164412	0.000221605	0.000269858	0.00031513	0.00035523	0.000389926	0.000425147	0.000457477	0.00049296
0.15	0.000103671	0.000185096	0.00025064	0.00030586	0.000358664	0.000403561	0.000441212	0.00048102	0.00051836	0.00055906
0.155	0.000117329	0.000207768	0.000283527	0.000346358	0.000406841	0.000456939	0.00050056	0.00054432	0.00058684	0.00063318
0.16	0.000132411	0.000233882	0.000320853	0.000391891	0.000460294	0.00051704	0.00056726	0.00061746	0.00066484	0.00071412
0.165	0.000148995	0.000264271	0.000362849	0.000443902	0.00052144	0.00058498	0.00064238	0.00069888	0.0007538	0.00080724
0.17	0.000167762	0.000299379	0.00041027	0.00050192	0.00058974	0.0006607	0.00072828	0.00079004	0.00085358	0.00091638
0.175	0.000188344	0.000338833	0.0004642	0.0005672	0.00066576	0.00074598	0.00082486	0.00089408	0.00096556	0.00103736
0.18	0.00021081	0.000381704	0.0005247	0.00064212	0.00075166	0.00084176	0.00093226	0.00101096	0.00109154	0.00117102
0.185	0.000236142	0.000429242	0.00059134	0.00072532	0.00084766	0.00094854	0.00105278	0.0011426	0.00123292	0.00132426
0.19	0.00026512	0.0004828	0.00066548	0.00081804	0.00095602	0.00106916	0.00118898	0.00129136	0.0013914	0.00149586
0.195	0.000297499	0.00054222	0.00074898	0.00092388	0.00107904	0.0012053	0.00134064	0.0014576	0.00156986	0.00168504
0.2	0.000333345	0.00060954	0.00084226	0.00104096	0.00121394	0.001358	0.00150932	0.00164336	0.00177004	0.00189992
0.205	0.000374034	0.00068602	0.0009469	0.00116964	0.00136304	0.00153276	0.00170006	0.00185088	0.00199726	0.0021439
0.21	0.000419632	0.00077014	0.00106412	0.00131522	0.0015321	0.00173274	0.00191674	0.0020851	0.00225592	0.0024127
0.215	0.00046788	0.0008626	0.00119362	0.00147674	0.00171876	0.00195426	0.0021563	0.00234656	0.00253764	0.0027075
0.22	0.00052056	0.00096644	0.00133792	0.00165492	0.00192814	0.00219742	0.00242032	0.00263494	0.00284626	0.003039
0.225	0.00058194	0.0010813	0.00149826	0.00185738	0.00216712	0.00246582	0.00271696	0.00295482	0.00319148	0.00340944
0.23	0.00064962	0.00120812	0.0016756	0.00208468	0.00243228	0.00276014	0.0030457	0.00331042	0.00357	0.00381482
0.235	0.00072028	0.0013496	0.00187394	0.0023313	0.00272576	0.00308098	0.00340274	0.00370282	0.0039853	0.004266
0.24	0.00079926	0.0015051	0.00209642	0.00260294	0.00305152	0.00343502	0.00379666	0.0041373	0.0044536	0.0047722
0.245	0.00088948	0.00167474	0.00233992	0.00290282	0.00340138	0.00382906	0.004235	0.004615	0.0049718	0.0053228
0.25	0.000985819999999999	0.00186032	0.00260072	0.00322436	0.00378018	0.004264	0.0047146	0.0051364	0.0055346	0.0059176
0.255	0.00108844	0.00206234	0.00288104	0.00357184	0.0041998	0.0047368	0.0052392	0.0057106	0.0061504	0.00656799999999999
0.26	0.00120212	0.00228276	0.00318482	0.0039594	0.0046532	0.005253	0.0058162	0.00633239999999999	0.00682239999999999	0.00727899999999999
0.265	0.00132544	0.00251922	0.00351416	0.0043856	0.0051406	0.00581719999999999	0.0064428	0.0070028	0.00755779999999999	0.00805019999999999
0.27	0.00145524	0.00277056	0.0038698	0.0048382	0.005675	0.0064258	0.0071176	0.00773900000000001	0.0083506	0.0088804
0.275	0.00159324	0.00304344	0.00425300000000001	0.00532260000000001	0.00625420000000001	0.00707920000000001	0.00783920000000001	0.00853320000000002	0.00919040000000002	0.00977300000000002
0.28	0.00174476	0.00333242	0.00466340000000001	0.00584400000000001	0.00686660000000001	0.00778060000000001	0.00861280000000001	0.00937340000000001	0.0100902	0.0107386
0.285	0.00190572	0.0036296	0.00509920000000001	0.00639360000000001	0.00751720000000001	0.00852680000000001	0.00944620000000001	0.0102676	0.0110572	0.011775
0.29	0.00206788	0.0039458	0.00556500000000001	0.00697540000000001	0.00821440000000001	0.00932040000000001	0.010326	0.0112216	0.0120794	0.0128718
0.295	0.00223822	0.0042832	0.006056	0.0075986	0.0089534	0.0101692	0.0112488	0.0122346	0.0131554	0.0140282
0.3	0.00241454	0.0046268	0.00655719999999999	0.00824779999999999	0.00971899999999999	0.0110524	0.012225	0.0132984	0.0142896	0.015247
0.305	0.002591	0.0049814	0.00707779999999999	0.00892259999999999	0.0105202	0.0119708	0.0132584	0.0144202	0.0155054	0.0165376
0.31	0.0027733	0.00535779999999999	0.00762199999999999	0.00962539999999999	0.0113666	0.0129438	0.014333	0.0156032	0.0167928	0.0178896
0.315	0.0029622	0.00574479999999999	0.00818059999999999	0.010345	0.0122384	0.013961	0.0154476	0.0168348	0.018116	0.019298
0.32	0.0031626	0.00613559999999999	0.00876379999999999	0.011096	0.0131332	0.0150112	0.0166238	0.0181336	0.0195024	0.0207798
0.325	0.0033682	0.00653539999999999	0.00936959999999999	0.0118782	0.014054	0.0160824	0.0178376	0.0194836	0.0209492	0.0223028
0.33	0.0035674	0.00694	0.0099768	0.012666	0.014993	0.0171822	0.0190746	0.020836	0.0224	0.023847
0.335	0.00376040000000001	0.00734300000000001	0.0105754	0.0134496	0.015947	0.0183092	0.0203378	0.022212	0.0238722	0.0254226
0.34	0.00395020000000001	0.00774120000000001	0.0111602	0.0142234	0.0169174	0.0194274	0.021599	0.023627	0.025392	0.027022
0.345	0.0041378	0.00812520000000001	0.0117298	0.0149794	0.0178818	0.0205128	0.022853	0.025008	0.0269	0.028648
0.35	0.0043204	0.00850140000000001	0.0123038	0.0157356	0.018836	0.0216092	0.0241264	0.026368	0.028418	0.030308
0.355	0.004501	0.0088656	0.0128626	0.0164804	0.0197746	0.0227284	0.025382	0.027772	0.029978	0.031964
0.36	0.0046762	0.00919879999999999	0.0133782	0.0171884	0.0206778	0.023808	0.02661	0.029176	0.03152	0.033584
0.365	0.0048244	0.00951879999999999	0.0138866	0.017889	0.021541	0.024852	0.027842	0.030542	0.033008	0.035184
0.37	0.0049512	0.00983799999999999	0.0143988	0.0185864	0.022372	0.0259	0.02903	0.031884	0.034474	0.036794
0.375	0.0050816	0.0101278	0.0148612	0.0192226	0.023188	0.026902	0.030174	0.033204	0.03594	0.038388
0.38	0.005197	0.0103858	0.01527	0.019796	0.02397	0.027818	0.031296	0.034464	0.03735	0.039916
0.385	0.0052998	0.0106304	0.0156748	0.020354	0.024692	0.028692	0.03235	0.03565	0.038672	0.041424
0.39	0.005406	0.0108438	0.0160322	0.020872	0.025366	0.029516	0.033344	0.036794	0.039956	0.042906
0.395	0.005484	0.0110158	0.016312	0.02131	0.025998	0.03026	0.034288	0.037892	0.041222	0.044288
0.4	0.00554160000000001	0.0111632	0.016564	0.021694	0.026542	0.030958	0.0351400000000001	0.0389100000000001	0.0423880000000001	0.0455840000000001
0.405	0.00558920000000001	0.011297	0.016804	0.022042	0.026994	0.03161	0.0359020000000001	0.039832	0.0434320000000001	0.0468060000000001
0.41	0.00559820000000001	0.011402	0.017008	0.022344	0.0274	0.032166	0.0365940000000001	0.04068	0.0444420000000001	0.0479260000000001
0.415	0.0056176	0.011472	0.017146	0.022576	0.027758	0.032658	0.037228	0.04146	0.0454020000000001	0.0489700000000001
0.42	0.0056542	0.0115222	0.017226	0.022738	0.028028	0.033108	0.037774	0.042126	0.046222	0.049932
0.425	0.00563359999999999	0.0115358	0.01727	0.022876	0.028222	0.033448	0.03822	0.042684	0.046932	0.050776
0.43	0.0056036	0.011506	0.017268	0.02297	0.028392	0.033668	0.038604	0.04322	0.047546	0.051546
0.435	0.0056098	0.011476	0.017226	0.022986	0.028522	0.033832	0.038902	0.043688	0.048034	0.052226
0.44	0.0055546	0.011436	0.017192	0.02296	0.028564	0.03394	0.03907	0.043958	0.0484479999999999	0.052764
0.445	0.0054566	0.011346	0.01713	0.022906	0.02853	0.033952	0.039172	0.044114	0.04879	0.053196
0.45	0.00541819999999999	0.011232	0.017004	0.022778	0.028446	0.033896	0.039226	0.044254	0.049034	0.053548
0.455	0.005368	0.011096	0.016868	0.022598	0.0283	0.03381	0.039172	0.044294	0.049218	0.053798
0.46	0.0052462	0.010936	0.016714	0.022422	0.02807	0.0336780000000001	0.0390160000000001	0.0442140000000001	0.0492980000000001	0.0539400000000001
0.465	0.00516620000000001	0.010804	0.0165	0.0222	0.027796	0.033462	0.0388080000000001	0.0441200000000001	0.0492320000000001	0.0540100000000001
0.47	0.00512580000000001	0.010692	0.016256	0.02191	0.02754	0.033174	0.03859	0.0440000000000001	0.0490780000000001	0.0539780000000001
0.475	0.00502000000000001	0.010536	0.016026	0.021618	0.0272620000000001	0.032862	0.0383	0.0437620000000001	0.0488460000000001	0.0538120000000001
0.48	0.0049088	0.010334	0.015782	0.021314	0.026922	0.032478	0.037936	0.04343	0.048556	0.05359
0.485	0.004829	0.010128	0.01548	0.020968	0.026562	0.032038	0.037562	0.04303	0.048252	0.053356
0.49	0.0047274	0.00990599999999999	0.015178	0.020628	0.026186	0.03162	0.037138	0.04256	0.0478699999999999	0.053012
