|Vgs|	Gm_|Vds|=0.01V	Gm_|Vds|=0.02V	Gm_|Vds|=0.03V	Gm_|Vds|=0.04V	Gm_|Vds|=0.05V	Gm_|Vds|=0.06V	Gm_|Vds|=0.07V	Gm_|Vds|=0.08V	Gm_|Vds|=0.09V	Gm_|Vds|=0.1V
-0.3	5.59999999999936e-10	-4.20000000000055e-10	-2.3200000000001e-09	-2.92000000000013e-09	-2.22000000000003e-09	-3.24000000000007e-09	-3.04000000000005e-09	-3.16200000000008e-09	-4.31400000000008e-09	-2.95380000000006e-08
-0.295	1.56666666666627e-10	-9.68333333333355e-10	-2.57333333333337e-09	-3.22666666666671e-09	-2.97666666666666e-09	-3.68833333333334e-09	-4.07233333333333e-09	-4.42300000000002e-09	-5.48966666666667e-09	-2.30211666666668e-08
-0.29	-3.93000000000024e-10	-1.78100000000001e-09	-3.10700000000002e-09	-3.93700000000002e-09	-4.099e-09	-4.784e-09	-5.6178e-09	-5.72210000000001e-09	-6.6105e-09	-1.87264e-08
-0.285	-8.85000000000007e-10	-2.4e-09	-3.666e-09	-4.59e-09	-5.12799999999999e-09	-5.86799999999998e-09	-6.88479999999999e-09	-7.08989999999999e-09	-7.85489999999998e-09	-1.55083999999999e-08
-0.28	-1.354e-09	-3.12999999999999e-09	-4.365e-09	-5.47899999999999e-09	-6.25699999999999e-09	-7.14099999999999e-09	-8.24109999999999e-09	-8.59269999999999e-09	-9.21809999999999e-09	-1.35011e-08
-0.275	-1.712e-09	-3.90399999999999e-09	-5.16099999999999e-09	-6.49199999999999e-09	-7.43299999999999e-09	-8.48099999999999e-09	-9.58289999999999e-09	-1.00853e-08	-1.05764e-08	-1.37142e-08
-0.27	-2.106e-09	-4.55599999999999e-09	-6.07899999999999e-09	-7.54099999999999e-09	-8.68699999999999e-09	-9.92109999999999e-09	-1.09233e-08	-1.16349e-08	-1.21914e-08	-1.29855e-08
-0.265	-2.58399999999999e-09	-5.24099999999999e-09	-7.06499999999999e-09	-8.73399999999999e-09	-1.0049e-08	-1.14609e-08	-1.23574e-08	-1.3327e-08	-1.26174e-08	-8.12299999999999e-09
-0.26	-3.072e-09	-6.16999999999999e-09	-8.12999999999999e-09	-1.0128e-08	-1.1557e-08	-1.30459e-08	-1.41012e-08	-1.52451e-08	-9.36599999999999e-09	-8.34699999999998e-10
-0.255	-3.66999999999999e-09	-7.19599999999999e-09	-9.43799999999999e-09	-1.1655e-08	-1.33373e-08	-1.47993e-08	-1.61592e-08	-1.69976e-08	-2.8629e-09	7.2371e-09
-0.25	-4.39799999999999e-09	-8.153e-09	-1.0934e-08	-1.3292e-08	-1.53391e-08	-1.68369e-08	-1.83975e-08	-1.57338e-08	5.2057e-09	1.64871e-08
-0.245	-5.151e-09	-9.20299999999999e-09	-1.2469e-08	-1.5116e-08	-1.74787e-08	-1.91302e-08	-2.10453e-08	-9.14029999999999e-09	1.45346e-08	2.4907e-08
-0.24	-5.918e-09	-1.0514e-08	-1.4228e-08	-1.722e-08	-1.98292e-08	-2.1786e-08	-2.09864e-08	7.31199999999999e-10	2.3665e-08	3.016e-08
-0.235	-6.80500000000004e-09	-1.20020000000001e-08	-1.63090000000001e-08	-1.95754000000001e-08	-2.24814000000001e-08	-2.48380000000001e-08	-1.40255999999999e-08	1.19620000000002e-08	3.03221000000001e-08	3.40900000000002e-08
-0.23	-7.84400000000004e-09	-1.36830000000001e-08	-1.85570000000001e-08	-2.21948000000001e-08	-2.54718000000001e-08	-2.51074000000001e-08	-2.23879999999992e-09	2.43133000000001e-08	3.51620000000001e-08	3.85044000000002e-08
-0.225	-8.96900000000004e-09	-1.57020000000001e-08	-2.10510000000001e-08	-2.52435000000001e-08	-2.88590000000001e-08	-1.81982000000001e-08	1.12833000000001e-08	3.52113000000001e-08	4.00272000000001e-08	4.32624000000002e-08
-0.22	-1.0178e-08	-1.80490000000001e-08	-2.39600000000001e-08	-2.87466000000001e-08	-2.92401000000001e-08	-5.11180000000013e-09	2.67110000000001e-08	4.23668000000001e-08	4.53569000000001e-08	4.87183000000001e-08
-0.215	-1.1603e-08	-2.06100000000001e-08	-2.72510000000001e-08	-3.26687000000001e-08	-2.13611000000001e-08	1.10962999999998e-08	4.10945e-08	4.81121000000001e-08	5.12781000000001e-08	5.51380000000001e-08
-0.21	-1.3278e-08	-2.3367e-08	-3.09192e-08	-3.39976e-08	-6.27249999999999e-09	2.94821e-08	5.06479e-08	5.47166e-08	5.81087999999999e-08	6.23762999999999e-08
-0.205	-1.5169e-08	-2.647e-08	-3.50828e-08	-2.67575e-08	1.22767e-08	4.70224e-08	5.77640999999999e-08	6.20362e-08	6.58768e-08	7.06047999999999e-08
-0.2	-1.7354e-08	-3.00709e-08	-3.89715e-08	-1.02357e-08	3.3464e-08	5.96040999999999e-08	6.55644999999999e-08	7.02197999999999e-08	7.45804999999999e-08	8.00289999999999e-08
-0.195	-1.9821e-08	-3.4136e-08	-3.62859e-08	1.09547e-08	5.39478e-08	6.84831e-08	7.42689999999999e-08	7.95389999999999e-08	8.43939999999999e-08	9.05339999999999e-08
-0.19	-2.253e-08	-3.86795e-08	-2.13561e-08	3.46945e-08	6.87262999999999e-08	7.73925999999999e-08	8.40750999999999e-08	9.00829999999999e-08	9.56089999999999e-08	1.02183e-07
-0.185	-2.555e-08	-4.39463e-08	1.2497e-09	5.85139999999999e-08	7.94098999999999e-08	8.76117999999999e-08	9.51856999999999e-08	1.02083e-07	1.08375e-07	1.15321e-07
-0.18	-2.9016e-08	-4.28404e-08	2.69256e-08	7.68992999999999e-08	9.02303999999999e-08	9.92492999999999e-08	1.07754e-07	1.15766e-07	1.22817e-07	1.30335e-07
-0.175	-3.2923e-08	-2.73392e-08	5.51427e-08	8.95271999999999e-08	1.021471e-07	1.12484e-07	1.22016e-07	1.3122e-07	1.39201e-07	1.47515e-07
-0.17	-3.73318e-08	-2.60739999999999e-09	7.99988999999999e-08	1.014529e-07	1.15469e-07	1.27619e-07	1.38272e-07	1.48622e-07	1.57813e-07	1.67039e-07
-0.165	-4.23606e-08	2.56797e-08	9.63930999999999e-08	1.151792e-07	1.30796e-07	1.44747e-07	1.56798e-07	1.6829e-07	1.78792e-07	1.8917e-07
-0.16	-4.80338e-08	5.78633e-08	1.093525e-07	1.30632e-07	1.4825e-07	1.64091e-07	1.77773e-07	1.90709e-07	2.02383e-07	2.14522e-07
-0.155	-4.83872e-08	8.71113999999999e-08	1.239292e-07	1.48059e-07	1.67972e-07	1.8602e-07	2.01482e-07	2.16156e-07	2.29174e-07	2.43329e-07
-0.15	-3.45605e-08	1.060351e-07	1.405108e-07	1.67672e-07	1.90603e-07	2.1088e-07	2.28558e-07	2.44769e-07	2.59773e-07	2.75795e-07
-0.145	-8.8356e-09	1.203304e-07	1.59536e-07	1.90042e-07	2.16509e-07	2.39066e-07	2.59415e-07	2.77375e-07	2.94733e-07	3.12717e-07
-0.14	2.21065e-08	1.364278e-07	1.81083e-07	2.1586e-07	2.45762e-07	2.71071e-07	2.9422e-07	3.1474e-07	3.34405e-07	3.54676e-07
-0.135	5.71518e-08	1.54673e-07	2.0522e-07	2.45009e-07	2.78701e-07	3.07333e-07	3.33675e-07	3.56818e-07	3.79334e-07	4.01975e-07
-0.13	9.09841999999999e-08	1.75412e-07	2.3264e-07	2.77814e-07	3.16077e-07	3.48442e-07	3.785e-07	4.04595e-07	4.30342e-07	4.55222e-07
-0.125	1.150225e-07	1.99343e-07	2.63784e-07	3.1525e-07	3.58471e-07	3.95299e-07	4.28988e-07	4.59336e-07	4.87946e-07	5.15816e-07
-0.12	1.320274e-07	2.26783e-07	2.98846e-07	3.57663e-07	4.06402e-07	4.48518e-07	4.8637e-07	5.21144e-07	5.53017999999999e-07	5.85079999999999e-07
-0.115	1.497471e-07	2.57413e-07	3.38595e-07	4.05364e-07	4.60826e-07	5.08656e-07	5.51816e-07	5.90607999999999e-07	6.27015999999999e-07	6.63485999999999e-07
-0.11	1.7012e-07	2.91957000000001e-07	3.84110000000001e-07	4.59696000000001e-07	5.22706000000001e-07	5.77176000000001e-07	6.25942000000001e-07	6.69738000000001e-07	7.11366000000001e-07	7.52360000000002e-07
-0.105	1.93414e-07	3.31414000000001e-07	4.36004000000001e-07	5.21706000000001e-07	5.92864000000001e-07	6.54878000000001e-07	7.09640000000001e-07	7.60132000000001e-07	8.06796000000001e-07	8.53604000000001e-07
-0.1	2.20443e-07	3.75788e-07	4.95198000000001e-07	5.92226000000001e-07	6.72790000000001e-07	7.42470000000001e-07	8.04850000000001e-07	8.62240000000001e-07	9.14498000000001e-07	9.68324000000001e-07
-0.095	2.50796e-07	4.25863e-07	5.62428000000001e-07	6.72212000000001e-07	7.63674000000001e-07	8.42056000000001e-07	9.13480000000001e-07	9.77420000000001e-07	1.037218e-06	1.097986e-06
-0.09	2.84239e-07	4.83189e-07	6.38436000000001e-07	7.62994000000001e-07	8.66354000000001e-07	9.55384000000001e-07	1.03649e-06	1.108616e-06	1.177896e-06	1.24559e-06
-0.085	3.22254e-07	5.4855e-07	7.24659999999999e-07	8.65983999999999e-07	9.83031999999999e-07	1.084002e-06	1.17616e-06	1.258484e-06	1.335688e-06	1.413114e-06
-0.08	3.65514e-07	6.2276e-07	8.22091999999999e-07	9.82483999999999e-07	1.116082e-06	1.230392e-06	1.334956e-06	1.428746e-06	1.513522e-06	1.603064e-06
-0.075	4.14069e-07	7.06791999999999e-07	9.32009999999999e-07	1.11481e-06	1.266484e-06	1.396338e-06	1.514672e-06	1.621356e-06	1.718932e-06	1.818524e-06
-0.07	4.70063e-07	8.02161999999999e-07	1.05727e-06	1.265172e-06	1.437136e-06	1.58495e-06	1.718144e-06	1.839912e-06	1.954042e-06	2.064266e-06
-0.0649999999999999	5.34096e-07	9.10149999999999e-07	1.199986e-06	1.435472e-06	1.631656e-06	1.799814e-06	1.949426e-06	2.08825e-06	2.218728e-06	2.34377e-06
-0.0599999999999999	6.05607999999999e-07	1.032768e-06	1.361516e-06	1.629398e-06	1.852182e-06	2.041082e-06	2.214338e-06	2.370324e-06	2.51673e-06	2.660526e-06
-0.0549999999999999	6.86535999999999e-07	1.17234e-06	1.544986e-06	1.849596e-06	2.10091e-06	2.314696e-06	2.51548e-06	2.68977e-06	2.85433e-06	3.020822e-06
-0.0499999999999999	7.78882000000001e-07	1.33115e-06	1.754764e-06	2.09887e-06	2.383404e-06	2.630882e-06	2.85548000000001e-06	3.05039000000001e-06	3.24013000000001e-06	3.43080800000001e-06
-0.0449999999999999	8.84180000000004e-07	1.51200800000001e-06	1.99191000000001e-06	2.38164800000001e-06	2.70615000000001e-06	2.99045000000001e-06	3.24160800000002e-06	3.46394000000002e-06	3.68014600000002e-06	3.89513400000002e-06
-0.0399999999999999	1.004674e-06	1.71630800000001e-06	2.25983800000001e-06	2.70094000000001e-06	3.07327000000001e-06	3.39229800000001e-06	3.68043000000001e-06	3.93788800000001e-06	4.17806200000002e-06	4.41911000000002e-06
-0.035	1.141238e-06	1.94696400000001e-06	2.56491200000001e-06	3.06318600000001e-06	3.48885400000001e-06	3.85025000000001e-06	4.17608600000001e-06	4.46900200000001e-06	4.74340000000002e-06	5.01340000000002e-06
-0.03	1.2959e-06	2.20688200000001e-06	2.91295600000001e-06	3.47886800000001e-06	3.96049400000001e-06	4.37692000000001e-06	4.73920000000001e-06	5.07380000000001e-06	5.39000000000002e-06	5.69240000000002e-06
-0.025	1.471306e-06	2.503782e-06	3.309384e-06	3.952188e-06	4.496306e-06	4.9692e-06	5.3824e-06	5.7696e-06	6.1208e-06	6.46540000000001e-06
-0.02	1.669196e-06	2.847076e-06	3.757592e-06	4.48967e-06	5.109e-06	5.6376e-06	6.10859999999999e-06	6.55219999999999e-06	6.94459999999999e-06	7.33859999999999e-06
-0.015	1.894332e-06	3.236598e-06	4.264808e-06	5.1016e-06	5.80639999999999e-06	6.4002e-06	6.93179999999999e-06	7.43279999999999e-06	7.88379999999999e-06	8.33559999999999e-06
-0.01	2.149564e-06	3.675934e-06	4.843e-06	5.79959999999999e-06	6.58899999999999e-06	7.27379999999999e-06	7.88319999999999e-06	8.44479999999999e-06	8.95399999999999e-06	9.47679999999999e-06
-0.005	2.439188e-06	4.172774e-06	5.5018e-06	6.59739999999999e-06	7.47519999999999e-06	8.26739999999999e-06	8.96779999999999e-06	9.59279999999999e-06	1.0171e-05	1.07608e-05
-0	2.771792e-06	4.7338e-06	6.244e-06	7.49719999999999e-06	8.49439999999999e-06	9.38459999999999e-06	1.01838e-05	1.08874e-05	1.15542e-05	1.22048e-05
0.005	3.148362e-06	5.3732e-06	7.0804e-06	8.50559999999999e-06	9.65119999999999e-06	1.06508e-05	1.15618e-05	1.23648e-05	1.31224e-05	1.38564e-05
0.01	3.575286e-06	6.10539999999999e-06	8.04679999999999e-06	9.65079999999999e-06	1.09472e-05	1.2101e-05	1.31282e-05	1.40456e-05	1.48982e-05	1.5737e-05
0.015	4.062268e-06	6.93739999999999e-06	9.15179999999999e-06	1.09508e-05	1.24246e-05	1.37444e-05	1.48902e-05	1.5942e-05	1.69002e-05	1.78544e-05
0.02	4.61222e-06	7.87979999999999e-06	1.03904e-05	1.24234e-05	1.41196e-05	1.55974e-05	1.68988e-05	1.80948e-05	1.91482e-05	2.02438e-05
0.025	5.22639999999999e-06	8.94459999999999e-06	1.17972e-05	1.41008e-05	1.6029e-05	1.77098e-05	1.91726e-05	2.05232e-05	2.1679e-05	2.29606e-05
0.03	5.9224e-06	1.01376e-05	1.33952e-05	1.60232e-05	1.81868e-05	2.00928e-05	2.17238e-05	2.32642e-05	2.4591e-05	2.60756e-05
0.035	6.72659999999999e-06	1.14974e-05	1.51928e-05	1.8207e-05	2.06416e-05	2.27508e-05	2.46404e-05	2.63978e-05	2.7965e-05	2.96078e-05
0.04	7.65139999999999e-06	1.3063e-05	1.72398e-05	2.06404e-05	2.34074e-05	2.5796e-05	2.79682e-05	2.99598e-05	3.18294e-05	3.36292e-05
0.045	8.68799999999999e-06	1.48388e-05	1.95486e-05	2.33498e-05	2.65504e-05	2.93198e-05	3.17334e-05	3.40036e-05	3.622e-05	3.82504e-05
0.05	9.85559999999999e-06	1.68492e-05	2.21258e-05	2.64656e-05	3.01464e-05	3.3315e-05	3.6054e-05	3.8643e-05	4.12158e-05	4.3478e-05
0.055	1.1185e-05	1.9123e-05	2.51018e-05	3.00616e-05	3.4215e-05	3.7844e-05	4.10192e-05	4.39148e-05	4.6848e-05	4.9339e-05
0.0600000000000001	1.26684e-05	2.16902e-05	2.85442e-05	3.41456e-05	3.88548e-05	4.30244e-05	4.6622e-05	4.9828e-05	5.3138e-05	5.60109999999999e-05
0.0650000000000001	1.43298e-05	2.45658e-05	3.24038e-05	3.88026e-05	4.41578e-05	4.887e-05	5.2909e-05	5.6584e-05	6.02069999999999e-05	6.36119999999999e-05
0.0700000000000001	1.62064e-05	2.77678e-05	3.6725e-05	4.40352e-05	5.0078e-05	5.5388e-05	5.99469999999999e-05	6.42259999999999e-05	6.81509999999999e-05	7.21179999999999e-05
0.0750000000000001	1.8368e-05	3.14698000000001e-05	4.16458000000001e-05	4.99490000000001e-05	5.67910000000001e-05	6.28120000000001e-05	6.79820000000001e-05	7.27990000000001e-05	7.72670000000001e-05	8.18040000000002e-05
0.0800000000000001	2.08496000000001e-05	3.57582000000002e-05	4.72550000000002e-05	5.67080000000003e-05	6.44800000000003e-05	7.12770000000003e-05	7.71680000000004e-05	8.25670000000004e-05	8.77470000000004e-05	9.28970000000004e-05
0.0850000000000001	2.36324000000001e-05	4.05226000000002e-05	5.36320000000002e-05	6.44340000000002e-05	7.31640000000003e-05	8.08640000000003e-05	8.75150000000003e-05	9.37770000000004e-05	9.96300000000004e-05	0.000105384
0.09	2.67688000000001e-05	4.59256000000001e-05	6.08430000000002e-05	7.31700000000002e-05	8.30000000000003e-05	9.17380000000003e-05	9.92440000000003e-05	0.000106498	0.000113153	0.000119464
0.095	3.03888000000001e-05	5.22630000000001e-05	6.90370000000002e-05	8.29720000000002e-05	9.42320000000003e-05	0.000104015	0.000112703	0.000120893	0.000128549	0.000135557
0.1	3.4513e-05	5.9336e-05	7.83250000000001e-05	9.40030000000001e-05	0.000106924	0.000117878	0.000127906	0.000137179	0.000145746	0.000153757
0.105	3.90526e-05	6.71189999999999e-05	8.88099999999999e-05	0.000106475	0.000121239	0.000133619	0.000144935	0.000155533	0.000165042	0.000174402
0.11	4.41902e-05	7.60719999999999e-05	0.000100628	0.000120659	0.000137431	0.000151465	0.000164248	0.000176282	0.000187035	0.000198054
0.115	5.0139e-05	8.62479999999999e-05	0.000113985	0.00013675	0.000155708	0.000171685	0.000186386	0.000199859	0.000211957	0.000224694
0.12	5.6763e-05	9.75179999999999e-05	0.000129296	0.000154954	0.000176372	0.000194668	0.000211604	0.000226558	0.000240158	0.000254488
0.125	6.41289999999999e-05	0.000110339	0.000146631	0.000175595	0.000199921	0.000220712	0.000239656	0.000256661	0.000272369	0.00028817
0.13	7.26729999999999e-05	0.000124932	0.000165846	0.000198904	0.000226748	0.000250042	0.000271279	0.000290927	0.000308999	0.000326423
0.135	8.24389999999999e-05	0.000141287	0.000187453	0.000225102	0.000256789	0.000283199	0.000307637	0.000329517	0.000350122	0.000369683
0.14	9.32339999999999e-05	0.00015995	0.000212097	0.000254747	0.000290502	0.000320823	0.000348463	0.00037282	0.00039673	0.000418673
0.145	0.000105443	0.000181114	0.000239996	0.000288284	0.000328738	0.000363202	0.000394187	0.000422292	0.000449627	0.00047414
0.15	0.000119285	0.000204728	0.00027125	0.00032598	0.00037186	0.000410804	0.00044628	0.00047842	0.000508819999999999	0.00053664
0.155	0.000134598	0.000231513	0.000306497	0.000368592	0.000420546	0.00046448	0.00050524	0.0005413	0.00057542	0.00060706
0.16	0.000151652	0.000261916	0.000346549	0.000416796	0.00047564	0.000525319999999999	0.0005711	0.00061202	0.000650939999999999	0.00068658
0.165	0.00017118	0.000295649	0.000391697	0.00047126	0.00053754	0.000594379999999999	0.000645299999999999	0.00069188	0.000735639999999999	0.000776759999999999
0.17	0.000193435	0.000333043	0.000442226	0.00053254	0.00060726	0.000671979999999999	0.000729279999999999	0.000781519999999999	0.000830259999999999	0.000878419999999999
0.175	0.000217998	0.000375222	0.00049904	0.00060086	0.000685179999999999	0.000758559999999999	0.000822779999999999	0.000881479999999999	0.000936979999999999	0.000991919999999999
0.18	0.000245214	0.000423399	0.000563479999999999	0.000678659999999999	0.000772619999999999	0.000856819999999999	0.000927719999999999	0.000994819999999999	0.00105804	0.00112004
0.185	0.000275958	0.00047738	0.000635719999999999	0.000766139999999999	0.000872099999999999	0.000967499999999999	0.0010472	0.00112404	0.00119428	0.00126484
0.19	0.000310792	0.00053766	0.000716839999999999	0.000862999999999999	0.000984479999999999	0.00109036	0.00118286	0.00126916	0.00134768	0.00142724
0.195	0.000349443	0.000606239999999999	0.000808359999999999	0.000973139999999999	0.00111018	0.00122896	0.00133454	0.00143208	0.0015214	0.00160944
0.2	0.000392579000000001	0.000683300000000001	0.000911400000000002	0.0010982	0.00125214	0.00138666	0.00150496	0.00161616	0.00171768	0.0018161
0.205	0.000441840000000002	0.000768180000000003	0.00102646	0.00123670000000001	0.00141202000000001	0.00156312000000001	0.00169834000000001	0.00182250000000001	0.00193620000000001	0.00204786000000001
0.21	0.000497580000000002	0.000863220000000003	0.00115444	0.00139186000000001	0.00159016000000001	0.00176086000000001	0.00191308000000001	0.00205246000000001	0.00217990000000001	0.00230462000000001
0.215	0.000558820000000002	0.000970180000000003	0.0012976	0.00156656000000001	0.00178950000000001	0.00198186000000001	0.00214934000000001	0.00230914000000001	0.00245426000000001	0.00259312000000001
0.22	0.000626160000000002	0.00108942	0.00145764	0.00175974000000001	0.00201162000000001	0.00222688000000001	0.00241648000000001	0.00259676000000001	0.00276246000000001	0.00292006000000001
0.225	0.000702400000000001	0.00122228	0.00163558	0.0019736	0.0022579	0.00250104	0.0027186	0.00292	0.00310808	0.003285
0.23	0.000787999999999999	0.00137038	0.00183446	0.00221188	0.00253488	0.0028101	0.00305504	0.0032823	0.00349442	0.00369202
0.235	0.000881759999999999	0.00153548	0.00205676	0.00247962	0.00284538	0.00315654	0.0034327	0.00368584	0.00392412	0.00415114
0.24	0.000985019999999999	0.00171876	0.00230268	0.00278146	0.00318932	0.00354412	0.0038565	0.00413822	0.0044028	0.004663
0.245	0.00109972	0.00191962	0.00257556	0.00311842	0.0035746	0.00397666	0.0043256	0.0046434	0.00493619999999999	0.0052244
0.25	0.00122588	0.00214076	0.0028808	0.0034932	0.0040057	0.0044536	0.0048422	0.0052018	0.00552679999999999	0.005844
0.255	0.00136438	0.00238832	0.0032187	0.0039068	0.0044784	0.004979	0.0054128	0.0058186	0.00618019999999999	0.00653179999999999
0.26	0.00151704	0.00266364	0.00358964	0.0043608	0.0050002	0.0055594	0.00604579999999999	0.00649819999999999	0.00690679999999999	0.00729139999999999
0.265	0.00168622	0.00296474	0.00399824	0.0048606	0.00557939999999999	0.00619579999999999	0.00674179999999999	0.00724319999999999	0.00770719999999999	0.00813339999999999
0.27	0.00187186	0.00329192	0.0044494	0.0054094	0.00621319999999999	0.00689659999999999	0.00750779999999999	0.00806259999999999	0.00858619999999999	0.00906379999999999
0.275	0.00207406	0.0036514	0.0049404	0.00601059999999999	0.00690839999999999	0.00767639999999999	0.00835599999999999	0.00896599999999999	0.00954939999999999	0.0100824
0.28	0.0022925	0.004047	0.00547219999999999	0.00667079999999999	0.00767059999999999	0.00853059999999999	0.00928399999999999	0.00995679999999999	0.0105986	0.0112024
0.285	0.00252426	0.0044732	0.00605419999999999	0.00738699999999999	0.00849879999999999	0.00945219999999999	0.0102934	0.0110416	0.0117466	0.0124288
0.29	0.00277612	0.004933	0.00668659999999999	0.00815839999999999	0.00940059999999999	0.0104584	0.011398	0.0122272	0.0130088	0.0137608
0.295	0.0030512	0.005433	0.00736639999999999	0.00899399999999999	0.0103766	0.0115584	0.0125932	0.013512	0.0143784	0.0152028
0.3	0.00334852	0.0059682	0.00810179999999999	0.00989519999999999	0.0114246	0.0127368	0.0138798	0.0149064	0.0158554	0.0167616
0.305	0.003667	0.00653499999999999	0.00889199999999999	0.0108652	0.0125478	0.0139966	0.015273	0.0164186	0.0174582	0.0184312
0.31	0.0040036	0.00713999999999999	0.00973579999999999	0.0119164	0.0137584	0.0153654	0.0167698	0.018039	0.019173	0.0202214
0.315	0.0043586	0.00778759999999999	0.0106342	0.0130396	0.0150698	0.016842	0.0183646	0.0197706	0.0209998	0.0221576
0.32	0.0047296	0.00846979999999999	0.0115774	0.0142258	0.0164672	0.0184026	0.0200696	0.0216192	0.0229696	0.0242354
