Vds	Gm_Vgs=0.15V	Gm_Vgs=0.3V	Gm_Vgs=0.45V	Gm_Vgs=0.6V	Gm_Vgs=0.75V	Gm_Vgs=0.9V
0	0.00016462	0.0120056	0.133104	0.21316	0.242796	0.253468
0.005	0.000188899	0.0130490666666667	0.129558666666667	0.211404666666667	0.241117	0.252537666666667
0.01	0.0001782222	0.01237184	0.1254944	0.2092964	0.2397468	0.2518864
0.015	0.0001695632	0.01176732	0.1210056	0.2073064	0.2385796	0.2513348
0.02	0.0001525164	0.01071508	0.1159978	0.2050328	0.2374596	0.2507968
0.025	0.0001277358	0.0092792	0.1109672	0.2029416	0.2366606	0.2505018
0.03	0.00010651	0.0079992	0.105577	0.200808	0.235918	0.25023
0.035	9.1351e-05	0.007003	0.100102	0.19838	0.235432	0.250242
0.04	7.8593e-05	0.00614	0.094904	0.19591	0.235324	0.250634
0.045	6.7984e-05	0.0054018	0.089812	0.19377	0.234748	0.250548
0.05	5.9211e-05	0.0047652	0.08477	0.191882	0.233666	0.25001
0.055	5.1879e-05	0.0042134	0.07977	0.189448	0.232372	0.249362
0.06	4.5753e-05	0.0037442	0.074902	0.18659	0.230678	0.248346
0.065	4.0633e-05	0.003347	0.070228	0.183758	0.228674	0.247012
0.07	3.6298e-05	0.0030012	0.065756	0.18046	0.22702	0.24612
0.075	3.2749e-05	0.0027038	0.061504	0.1767	0.2259	0.24572
0.08	2.9839e-05	0.0024544	0.057484	0.17328	0.22504	0.24528
0.085	2.7379e-05	0.0022342	0.053652	0.1701	0.22398	0.24466
0.09	2.5253e-05	0.0020446	0.049956	0.16672	0.22258	0.24408
0.095	2.3389e-05	0.0018928	0.046406	0.1632	0.22124	0.24354
0.1	2.1875e-05	0.0017646	0.043066	0.15966	0.21988	0.24284
0.105	2.0832e-05	0.0016596	0.03998	0.1562	0.21838	0.2422
0.11	2.0029e-05	0.0015722	0.037108	0.15268	0.21686	0.2416
0.115	1.9229e-05	0.0014916	0.034472	0.14904	0.21534	0.24094
0.12	1.8489e-05	0.0014208	0.032034	0.14512	0.21362	0.24004
0.125	1.7867e-05	0.0013522	0.02975	0.14104	0.21188	0.23914
0.13	1.716e-05	0.001285	0.027664	0.13712	0.2102	0.2385
0.135	1.6594e-05	0.0012328	0.025818	0.13328	0.20852	0.23776
0.14	1.6588e-05	0.0012004	0.024156	0.12952	0.20694	0.23686
0.145	1.6638e-05	0.001181	0.022612	0.12598	0.20538	0.23616
0.15	1.6347e-05	0.0011646	0.02121	0.12232	0.20356	0.23544
0.155	1.6117e-05	0.0011506	0.01993	0.11834	0.2015	0.23452
0.16	1.6028e-05	0.0011352	0.01873	0.11426	0.19944	0.23374
0.165	1.5738e-05	0.0011154	0.01766	0.11	0.19734	0.23292
0.17	1.544e-05	0.0010996	0.016764	0.10584	0.1953	0.23196
0.175	1.5473e-05	0.0010902	0.01595	0.10194	0.19334	0.23108
0.18	1.5615e-05	0.0010778	0.015168	0.09796	0.19134	0.2302
0.185	1.54239999999999e-05	0.0010638	0.014442	0.0940599999999999	0.18902	0.22902
0.19	1.5284e-05	0.0010546	0.013794	0.0904	0.18644	0.22778
0.195	1.5482e-05	0.0010498	0.013242	0.08658	0.18396	0.22676
0.2	1.5408e-05	0.001042	0.012758	0.08272	0.18162	0.22578
0.205	1.5149e-05	0.0010312	0.012342	0.0791400000000001	0.1792	0.22468
0.21	1.5219e-05	0.0010328	0.0119860000000001	0.0756000000000001	0.17676	0.22364
0.215	1.5382e-05	0.001037	0.011626	0.07206	0.17444	0.22272
0.22	1.5289e-05	0.0010322	0.01125	0.0688	0.172	0.22168
0.225	1.5258e-05	0.0010304	0.010894	0.06576	0.16922	0.22044
0.23	1.5539e-05	0.0010336	0.010604	0.0627199999999999	0.16636	0.21912
0.235	1.5741e-05	0.0010318	0.010396	0.0596999999999999	0.16374	0.2178
0.24	1.5635e-05	0.001022	0.01019	0.0568	0.16086	0.21622
0.245	1.5614e-05	0.0010114	0.009984	0.05408	0.15764	0.21462
0.25	1.5784e-05	0.0010078	0.00986	0.05132	0.15462	0.21332
0.255	1.5854e-05	0.0010072	0.009748	0.0486800000000001	0.15172	0.2121
0.26	1.5868e-05	0.0010062	0.009588	0.0464200000000001	0.14866	0.2108
0.265	1.6063e-05	0.0010066	0.00945399999999998	0.04424	0.14564	0.20956
0.27	1.6248e-05	0.0010064	0.00932799999999998	0.04208	0.14264	0.20822
0.275	1.6051e-05	0.0010112	0.00918	0.0402	0.13948	0.20662
0.28	1.5738e-05	0.0010158	0.00904000000000002	0.03842	0.1362	0.20504
0.285	1.5721e-05	0.0010076	0.00928800000000002	0.0365599999999999	0.1329	0.2035
0.29	1.572e-05	0.0010042	0.00993800000000002	0.0349399999999999	0.1299	0.20186
0.295	1.5734e-05	0.001009	0.010258	0.0334999999999999	0.12686	0.20016
0.3	1.6047e-05	0.0010026	0.01025	0.0320999999999999	0.12336	0.19842
0.305	1.6329e-05	0.000999	0.010166	0.0308	0.1198	0.19634
0.31	1.6423e-05	0.0010008	0.00962799999999997	0.0295800000000001	0.11662	0.19422
0.315	1.6526e-05	0.0009956	0.00878999999999999	0.0284200000000001	0.11328	0.19246
0.32	1.6518e-05	0.001	0.00835999999999999	0.0273	0.1095	0.19072
0.325	1.6486e-05	0.0010106	0.00827999999999998	0.02624	0.10608	0.18876
0.33	1.6681e-05	0.0010112	0.00829999999999999	0.02534	0.10294	0.1869
0.335	1.6283e-05	0.0010154	0.00836000000000001	0.02456	0.0994399999999999	0.18508
0.34	1.5784e-05	0.0010214	0.0083	0.02374	0.096	0.1829
0.345	1.6457e-05	0.0010132	0.00822000000000001	0.0230400000000001	0.0931800000000001	0.1806
0.35	1.6984e-05	0.0010032	0.00816000000000004	0.0224800000000001	0.0903000000000001	0.17846
0.355	1.67e-05	0.0010062	0.00806000000000003	0.02188	0.0871800000000001	0.17628
0.36	1.704e-05	0.0010212	0.008	0.0212999999999999	0.0842200000000002	0.17388
0.365	1.752e-05	0.0010306	0.00801999999999998	0.0209199999999999	0.0811200000000002	0.17164
0.37	1.702e-05	0.0010264	0.00793999999999999	0.02062	0.07794	0.16954
0.375	1.664e-05	0.0010214	0.00779999999999999	0.02018	0.07514	0.1672
0.38	1.69e-05	0.001016	0.00777999999999998	0.0196600000000001	0.0725399999999999	0.16482
0.385	1.722e-05	0.0010126	0.00776	0.0192000000000001	0.0697199999999997	0.16248
0.39	1.752e-05	0.001013	0.00764	0.0187000000000001	0.0669199999999997	0.15988
0.395	1.768e-05	0.0010116	0.00761999999999999	0.018	0.0643799999999999	0.15714
0.4	1.766e-05	0.0010142	0.00769999999999999	0.0175	0.0618600000000001	0.15454
0.405	1.764e-05	0.0010176	0.00767999999999999	0.0175199999999999	0.0592800000000002	0.15196
0.41	1.76e-05	0.001012	0.00763999999999998	0.0175399999999999	0.0568800000000003	0.14934
0.415	1.746e-05	0.001008	0.00765999999999999	0.0173	0.0548000000000004	0.14674
0.42	1.734e-05	0.0010118	0.00767999999999998	0.0171999999999999	0.0528000000000002	0.14404
0.425	1.756e-05	0.0010192	0.00757999999999998	0.0170599999999999	0.0509000000000001	0.1412
0.43	1.786e-05	0.0010228	0.00743999999999999	0.0166	0.04918	0.13834
0.435	1.79e-05	0.0010218	0.00742000000000001	0.0161000000000001	0.0472799999999999	0.13554
0.44	1.8e-05	0.0010324	0.00742000000000001	0.01588	0.0453599999999998	0.13278
0.445	1.818e-05	0.0010428	0.0074	0.0159600000000001	0.0436799999999998	0.12998
0.45	1.81e-05	0.001037	0.00746000000000001	0.01598	0.0419599999999997	0.12712
0.455	1.794e-05	0.0010366	0.00752000000000003	0.0158199999999999	0.0398799999999996	0.1243
0.46	1.814e-05	0.0010424	0.00748000000000003	0.0159799999999999	0.0382199999999998	0.1215
0.465	1.832e-05	0.0010364	0.00740000000000002	0.0161999999999999	0.0374800000000001	0.11848
0.47	1.832e-05	0.0010286	0.00734000000000001	0.01564	0.0365600000000001	0.1154
0.475	1.844e-05	0.0010338	0.00730000000000001	0.0147	0.0353400000000003	0.11254
0.48	1.854e-05	0.001043	0.00725999999999999	0.01452	0.0346600000000004	0.10962
0.485	1.842e-05	0.0010438	0.00727999999999999	0.01476	0.0338800000000001	0.10658
0.49	1.806e-05	0.0010434	0.00731999999999999	0.01408	0.0325399999999999	0.1037
0.495	1.81e-05	0.0010454	0.00726	0.01336	0.03134	0.0963400000000001
0.5	1.858e-05	0.0010464	0.00722000000000002	0.01398	0.0301599999999999	0.0797800000000001
0.505	1.886e-05	0.0010454	0.00726	0.01464	0.0296799999999998	0.0589399999999999
0.51	1.908e-05	0.0010462	0.00717999999999999	0.01414	0.02962	0.0387399999999997
0.515	1.944e-05	0.0010512	0.0071	0.01414	0.0283600000000002	0.0191999999999998
0.52	1.934e-05	0.0010598	0.00711999999999999	0.01504	0.0271	0.00479999999999994
0.525	1.904e-05	0.001058	0.00705999999999996	0.0151199999999999	0.0272	-2.000000000002e-05
0.53	1.926e-05	0.0010488	0.00703999999999996	0.0144	0.0267	4.000000000004e-05
0.535	1.922e-05	0.0010514	0.00711999999999997	0.01412	0.0246999999999998	0.00014000000000014
0.54	1.902e-05	0.0010494	0.00713999999999999	0.0142	0.0237399999999997	8.00000000000799e-05
0.545	1.934e-05	0.0010396	0.00712	0.01388	0.0241399999999998	-4.000000000004e-05
0.55	1.952e-05	0.001042	0.00716000000000002	0.01352	0.0238399999999999	-6.00000000000604e-05
0.555	1.93000000000001e-05	0.0010474	0.00716000000000006	0.0134200000000001	0.0231999999999998	-8.00000000000804e-05
0.56	1.95200000000001e-05	0.0010448	0.00702000000000006	0.0133400000000001	0.0235800000000001	-0.0001000000000001
0.565	2.00600000000001e-05	0.0010572	0.00690000000000004	0.0133000000000001	0.0241600000000004	-4.47233396150271e-19
0.57	2.01200000000001e-05	0.0010748	0.00692000000000004	0.0133400000000001	0.0237000000000003	0.000100000000000099
0.575	2.01e-05	0.001073	0.00692000000000003	0.0133400000000001	0.0224600000000002	0.0001000000000001
0.58	2.00799999999999e-05	0.001073	0.00684	0.0133600000000001	0.0210200000000002	0.0001000000000001
0.585	2.00799999999999e-05	0.001086	0.00689999999999999	0.01332	0.0205600000000001	8.00000000000799e-05
0.59	2.014e-05	0.0010858	0.00703999999999998	0.0131599999999999	0.0208799999999999	-4.000000000004e-05
0.595	1.986e-05	0.0010716	0.00699999999999997	0.0128599999999999	0.0204399999999999	-8.00000000000799e-05
0.6	1.972e-05	0.0010642	0.00689999999999997	0.01232	0.02024	0
0.605	1.998e-05	0.0010698	0.00695999999999996	0.0122599999999999	0.0208399999999999	2.000000000002e-05
0.61	2.01e-05	0.001079	0.00707999999999998	0.01254	0.0208399999999999	-2.000000000002e-05
0.615	2.014e-05	0.0010764	0.00702000000000001	0.0125000000000001	0.02004	-4.000000000004e-05
0.62	2.066e-05	0.0010838	0.00688000000000001	0.01276	0.0196800000000001	-4.000000000004e-05
0.625	2.098e-05	0.001104	0.00690000000000001	0.0134399999999999	0.02016	-6.000000000006e-05
0.63	2.094e-05	0.001104	0.00692000000000001	0.01378	0.02054	-8.00000000000799e-05
0.635	2.11e-05	0.0010912	0.00682	0.01368	0.01996	-4.000000000004e-05
0.64	2.104e-05	0.0010932	0.00677999999999999	0.01356	0.0190999999999998	4.000000000004e-05
0.645	2.086e-05	0.0010994	0.00683999999999998	0.0133600000000001	0.0190199999999997	4.000000000004e-05
0.65	2.108e-05	0.0010616	0.00685999999999997	0.0130200000000001	0.0187799999999999	2.000000000002e-05
0.655	2.136e-05	0.0010318	0.00673999999999999	0.01244	0.0180000000000001	6.000000000006e-05
0.66	2.13199999999999e-05	0.0010716	0.00666000000000001	0.0120599999999999	0.0179800000000001	8.00000000000799e-05
0.665	2.14799999999999e-05	0.001106	0.00680000000000001	0.0121399999999999	0.01838	0.0001000000000001
0.67	2.17599999999999e-05	0.00111	0.00688000000000002	0.0122599999999999	0.0177200000000001	0.0001000000000001
0.675	2.16199999999999e-05	0.001146	0.00682000000000005	0.01238	0.0168200000000001	6.00000000000595e-05
0.68	2.148e-05	0.001178	0.00694000000000004	0.0124200000000001	0.01724	4.00000000000397e-05
0.685	2.15000000000001e-05	0.001148	0.00702000000000002	0.01242	0.0178	-2.00000000000202e-05
0.69	2.15400000000001e-05	0.00111600000000001	0.00682000000000001	0.01242	0.0176000000000002	-0.00012000000000012
0.695	2.18200000000001e-05	0.0011	0.00668000000000001	0.01228	0.0181800000000002	-8.00000000000802e-05
0.7	2.22000000000001e-05	0.001104	0.00665999999999999	0.0122799999999999	0.0189000000000001	-4.00000000000397e-05
0.705	2.246e-05	0.001116	0.00659999999999997	0.01244	0.0180000000000001	-0.00012000000000012
0.71	2.248e-05	0.001104	0.00657999999999997	0.0126600000000002	0.0171600000000001	-0.0001000000000001
0.715	2.252e-05	0.001104	0.00665999999999998	0.0129400000000002	0.0169999999999998	6.7762635780344e-21
0.72	2.236e-05	0.00112	0.00673999999999999	0.0127200000000001	0.0157799999999997	3.3881317890172e-21
0.725	2.184e-05	0.00112	0.00671999999999998	0.01206	0.0147999999999998	3.3881317890172e-21
0.73	2.184e-05	0.001122	0.00663999999999999	0.0115999999999999	0.0157199999999997	8.00000000000799e-05
0.735	2.228e-05	0.001146	0.00656000000000002	0.0112999999999998	0.0163799999999997	6.000000000006e-05
0.74	2.232e-05	0.001152	0.00652000000000003	0.0110199999999999	0.01622	-2.000000000002e-05
0.745	2.226e-05	0.00114	0.00662000000000002	0.01132	0.0171200000000002	-2.000000000002e-05
0.75	2.29e-05	0.001138	0.00676000000000002	0.0118200000000001	0.0178800000000001	0
0.755	2.332e-05	0.00114	0.00676000000000002	0.0119200000000001	0.0171400000000001	-2.000000000002e-05
0.76	2.298e-05	0.001132	0.00674	0.0120200000000001	0.0165400000000002	4.000000000004e-05
0.765	2.306e-05	0.00113	0.00673999999999999	0.01228	0.0167200000000002	0.00012000000000012
0.77	2.36e-05	0.001144	0.00659999999999999	0.0122199999999999	0.0165600000000002	8.00000000000799e-05
0.775	2.36999999999999e-05	0.001142	0.00645999999999998	0.0117999999999999	0.0164200000000002	2.000000000002e-05
0.78	2.36e-05	0.001126	0.00647999999999999	0.0117	0.0166200000000001	-2.000000000002e-05
0.785	2.40600000000001e-05	0.001126	0.00647999999999999	0.01164	0.01598	-6.000000000006e-05
0.79	2.43e-05	0.001142	0.00645999999999997	0.0112600000000001	0.015	-0.0001000000000001
0.795	2.4e-05	0.001164	0.00655999999999996	0.0111600000000001	0.01472	-8.00000000000799e-05
0.8	2.40400000000001e-05	0.00119	0.0067	0.0114200000000001	0.01468	2.00000000000206e-05
0.805	2.41600000000001e-05	0.001202	0.00674000000000002	0.01148	0.01502	8.00000000000808e-05
0.81	2.392e-05	0.001192	0.00670000000000001	0.0114199999999999	0.01644	4.00000000000409e-05
0.815	2.386e-05	0.001178	0.00664000000000002	0.0114799999999999	0.01786	8.80914265144472e-19
0.82	2.43600000000001e-05	0.001172	0.00654000000000004	0.01152	0.0171799999999999	8.80914265144472e-19
0.825	2.444e-05	0.001166	0.00648000000000004	0.01154	0.0154999999999998	2.16840434497101e-19
0.83	2.42e-05	0.001154	0.00654000000000001	0.0116000000000001	0.0144	2.000000000002e-05
0.835	2.442e-05	0.00116	0.00664000000000001	0.0115600000000001	0.0134999999999999	4.000000000004e-05
0.84	2.482e-05	0.001178	0.00668000000000001	0.01136	0.0134399999999997	2.000000000002e-05
0.845	2.492e-05	0.001182	0.00665999999999999	0.01116	0.0152599999999998	-2.000000000002e-05
0.85	2.45199999999999e-05	0.001182	0.00659999999999997	0.01074	0.0170000000000002	-4.000000000004e-05
0.855	2.46e-05	0.001186	0.00653999999999998	0.01072	0.0172200000000003	-2.000000000002e-05
0.86	2.552e-05	0.001182	0.00649999999999999	0.01134	0.0170200000000002	2.000000000002e-05
0.865	2.566e-05	0.001174	0.00649999999999999	0.0114	0.0158400000000003	6.000000000006e-05
0.87	2.49e-05	0.001172	0.00656	0.01136	0.0143400000000002	6.000000000006e-05
0.875	2.54e-05	0.001182	0.00661999999999999	0.0118999999999999	0.0138999999999999	-3.3881317890172e-21
0.88	2.614e-05	0.001204	0.00657999999999998	0.0119599999999999	0.0139999999999998	-2.000000000002e-05
0.885	2.552e-05	0.001222	0.00647999999999999	0.01106	0.0139399999999999	2.000000000002e-05
0.89	2.526e-05	0.00123	0.00635999999999997	0.01036	0.0139799999999998	8.00000000000799e-05
0.895	2.62666666666667e-05	0.00122333333333333	0.00616666666666664	0.00973333333333346	0.0137666666666665	0.000233333333333566
0.9	2.49999999999999e-05	0.00124000000000001	0.0057999999999999	0.00759999999999996	0.0121999999999997	0.0002000000000002
