Vds	Gm_Vgs=0.15V	Gm_Vgs=0.3V	Gm_Vgs=0.45V	Gm_Vgs=0.6V	Gm_Vgs=0.75V	Gm_Vgs=0.9V
0	0.000559644	0.01511548	0.0161884	0.0143236	0.171932	0.1852
0.005	0.000534027666666667	0.0150268533333333	0.0547899666666667	0.0871787333333333	0.172287666666667	0.185706333333333
0.01	0.0004840196	0.014109352	0.06792832	0.11480384	0.1717212	0.1856404
0.015	0.0004400848	0.013277456	0.07973464	0.13972712	0.1713308	0.1855564
0.02	0.0003918882	0.012237494	0.08430444	0.15182198	0.1706544	0.1852278
0.025	0.000346529	0.01110324	0.07837434	0.1446666	0.1697066	0.1846246
0.03	0.000308291	0.010081	0.0721708	0.136892	0.168802	0.183994
0.035	0.000276326	0.009206	0.069274	0.13509	0.167938	0.183458
0.04	0.000250172	0.0084246	0.066446	0.133248	0.166992	0.18301
0.045	0.000227902	0.0077314	0.063672	0.131366	0.166042	0.182616
0.05	0.0002073	0.0071198	0.061006	0.129544	0.165166	0.182578
0.055	0.00019042	0.0065832	0.058448	0.127688	0.164528	0.182768
0.06	0.00017724	0.006113	0.055916	0.125668	0.164038	0.182448
0.065	0.00016462	0.0057006	0.053416	0.123622	0.163206	0.18178
0.07	0.00015418	0.0053398	0.051002	0.121544	0.162156	0.181202
0.075	0.00014746	0.0050264	0.048682	0.119648	0.16117	0.18034
0.08	0.00014108	0.0047546	0.046408	0.118024	0.159786	0.179182
0.085	0.0001357	0.0045162	0.04421	0.116166	0.158098	0.17852
0.09	0.00013244	0.0043018	0.042084	0.113846	0.15664	0.17792
0.095	0.0001292	0.0041192	0.040092	0.111488	0.15532	0.177
0.1	0.0001265	0.0039664	0.038282	0.109062	0.15398	0.17628
0.105	0.00012516	0.0038262	0.036552	0.10635	0.15276	0.17568
0.11	0.00012364	0.0037048	0.034918	0.10386	0.15156	0.1749
0.115	0.00012154	0.0036108	0.033438	0.10176	0.15038	0.17426
0.12	0.00012058	0.0035294	0.032	0.09958	0.14916	0.17378
0.125	0.00012066	0.0034582	0.0306	0.0972	0.14782	0.17306
0.13	0.00012074	0.0033994	0.029344	0.09484	0.1464	0.17228
0.135	0.00012122	0.0033476	0.028146	0.0925000000000001	0.14488	0.17154
0.14	0.0001221	0.003303	0.026986	0.09018	0.14344	0.17074
0.145	0.00012268	0.0032646	0.025902	0.08786	0.14192	0.16974
0.15	0.000123	0.0032434	0.024852	0.08554	0.14028	0.16878
0.155	0.00012382	0.0032202	0.023858	0.0832799999999999	0.13872	0.168
0.16	0.00012512	0.0031888	0.02298	0.0810199999999999	0.13722	0.16714
0.165	0.00012594	0.003174	0.022238	0.07874	0.13562	0.16622
0.17	0.0001267	0.003168	0.02158	0.07654	0.13404	0.16548
0.175	0.00012862	0.0031622	0.02094	0.0744	0.13252	0.16476
0.18	0.00013016	0.0031604	0.020362	0.07228	0.13092	0.16372
0.185	0.00013	0.0031552	0.019852	0.0702	0.12928	0.1626
0.19	0.0001315	0.00315259999999999	0.019308	0.06816	0.12754	0.16164
0.195	0.00013408	0.0031486	0.018786	0.0662400000000001	0.12582	0.16072
0.2	0.00013446	0.0031308	0.01838	0.0643200000000001	0.12412	0.1598
0.205	0.0001352	0.0031382	0.017998	0.0622800000000001	0.12226	0.1589
0.21	0.00013764	0.0031662	0.017564	0.06024	0.12028	0.15778
0.215	0.00013932	0.0031752	0.017172	0.05836	0.11842	0.15652
0.22	0.00014092	0.003183	0.016868	0.0565799999999999	0.1166	0.15532
0.225	0.00014346	0.0032006	0.016536	0.0548	0.11472	0.15412
0.23	0.00014472	0.0032148	0.016234	0.05314	0.11294	0.15294
0.235	0.00014556	0.00322	0.016088	0.0516600000000001	0.1112	0.15194
0.24	0.00014744	0.003218	0.015918	0.0501400000000001	0.10934	0.15098
0.245	0.00014956	0.003228	0.015662	0.04854	0.10744	0.14988
0.25	0.00015152	0.00324599999999999	0.015498	0.0471	0.10558	0.14868
0.255	0.00015366	0.00323999999999999	0.01534	0.0456799999999999	0.10368	0.1474
0.26	0.0001557	0.003236	0.015096	0.0441999999999999	0.10176	0.1461
0.265	0.00015722	0.003264	0.014906	0.0428199999999999	0.0997399999999999	0.14468
0.27	0.00015854	0.00329	0.014812	0.04154	0.0976400000000001	0.14324
0.275	0.00016018	0.00329600000000001	0.014714	0.04036	0.0955000000000002	0.14182
0.28	0.00016252	0.00331000000000001	0.014558	0.03932	0.0934000000000002	0.14044
0.285	0.00016474	0.00333400000000001	0.014394	0.03832	0.0915000000000002	0.13918
0.29	0.00016706	0.00333600000000001	0.014282	0.03732	0.0897600000000002	0.13792
0.295	0.00016926	0.003344	0.014154	0.0364000000000001	0.0880000000000001	0.13658
0.3	0.00017078	0.003374	0.014014	0.0355	0.0861999999999999	0.13522
0.305	0.00017292	0.003382	0.013984	0.03464	0.0843799999999999	0.13376
0.31	0.00017522	0.003388	0.013964	0.0338199999999999	0.0823999999999998	0.13214
0.315	0.0001759	0.003412	0.01386	0.0329599999999999	0.0803999999999998	0.1306
0.32	0.00017742	0.003414	0.013782	0.03214	0.0784999999999998	0.1291
0.325	0.00018072	0.003414	0.013726	0.0314	0.0765999999999998	0.12752
0.33	0.00018218	0.003456	0.013612	0.0306800000000001	0.0747199999999999	0.12598
0.335	0.00018366	0.00350000000000001	0.013524	0.0300600000000001	0.0729200000000001	0.12446
0.34	0.0001887	0.00352200000000001	0.0135	0.02958	0.0711600000000001	0.12286
0.345	0.00019372	0.00354000000000001	0.01346	0.02908	0.0694400000000002	0.1212
0.35	0.00019536	0.00354800000000001	0.013394	0.02858	0.0678400000000001	0.11956
0.355	0.00019674	0.00354	0.013298	0.0281	0.0662599999999999	0.118
0.36	0.00020018	0.00352599999999999	0.013206	0.0275799999999999	0.0645999999999999	0.11642
0.365	0.00020188	0.00352799999999999	0.013192	0.02718	0.06298	0.11474
0.37	0.00020082	0.00354399999999999	0.013166	0.02686	0.06144	0.113
0.375	0.00020212	0.00355799999999999	0.013158	0.0263599999999999	0.0599	0.11126
0.38	0.00020678	0.00358	0.01327	0.0259	0.0584000000000001	0.10954
0.385	0.00020988	0.00361	0.013288	0.02566	0.05706	0.10788
0.39	0.00021094	0.003624	0.013424	0.0253	0.0556999999999999	0.10626
0.395	0.00021494	0.00362600000000001	0.01391	0.02488	0.0542199999999999	0.1046
0.4	0.00022086	0.00363600000000001	0.01408	0.0246600000000001	0.05288	0.1029
0.405	0.00022268	0.00365200000000001	0.013846	0.0244200000000001	0.05166	0.1011
0.41	0.00022138	0.003682	0.013762	0.02404	0.0503200000000001	0.0992000000000004
0.415	0.00022308	0.003728	0.013548	0.02374	0.0490800000000002	0.0973800000000003
0.42	0.00022602	0.003766	0.013052	0.0235	0.0480600000000001	0.0956600000000001
0.425	0.00022756	0.003788	0.01282	0.02326	0.0469200000000001	0.09394
0.43	0.00023074	0.003796	0.01282	0.02308	0.0457400000000001	0.0922199999999999
0.435	0.000234	0.003786	0.0128	0.02292	0.04478	0.0905999999999996
0.44	0.00023598	0.003766	0.0128	0.02272	0.0438199999999999	0.0889999999999997
0.445	0.00023964	0.00376	0.01272	0.0225	0.0427399999999998	0.0873199999999998
0.45	0.00024322	0.00376999999999999	0.0127	0.02236	0.0418199999999999	0.0856799999999997
0.455	0.00024458	0.003796	0.01284	0.02228	0.04106	0.0840399999999998
0.46	0.00024778	0.003846	0.01282	0.0221000000000001	0.0402800000000001	0.0823400000000002
0.465	0.000252640000000001	0.00388800000000001	0.0127	0.02194	0.0395000000000001	0.0807200000000002
0.47	0.000255240000000001	0.00391400000000001	0.01272	0.02196	0.0387400000000001	0.0792000000000002
0.475	0.00025648	0.00395600000000001	0.01268	0.0218400000000001	0.038	0.0775200000000003
0.48	0.00025906	0.003982	0.0126	0.02154	0.0372999999999999	0.0758000000000002
0.485	0.00026484	0.003966	0.01268	0.0213399999999999	0.0365799999999999	0.0743199999999999
0.49	0.000270639999999999	0.00396799999999999	0.01272	0.02116	0.03586	0.0728399999999998
0.495	0.00027164	0.00398399999999999	0.01266	0.0209	0.03526	0.0711599999999999
0.5	0.00027184	0.00396799999999999	0.01264	0.02074	0.03468	0.06956
0.505	0.00027556	0.003964	0.01258	0.02074	0.03406	0.06814
0.51	0.00027884	0.00398199999999999	0.01252	0.02074	0.03348	0.06656
0.515	0.00027948	0.00400799999999999	0.01252	0.02064	0.03296	0.0649800000000001
0.52	0.00028066	0.004056	0.01252	0.0204799999999999	0.0325599999999999	0.06374
0.525	0.00028524	0.0041	0.01254	0.0203399999999999	0.0321999999999999	0.0625199999999999
0.53	0.00029024	0.004132	0.01256	0.0201599999999999	0.0317599999999999	0.0611599999999999
0.535	0.00029354	0.004162	0.01258	0.0199999999999999	0.0313599999999998	0.0598799999999999
0.54	0.00029986	0.004174	0.01266	0.02004	0.0310599999999999	0.0586199999999999
0.545	0.0003081	0.004174	0.01268	0.0201000000000001	0.03064	0.0572999999999999
0.55	0.000314620000000001	0.004192	0.01258	0.0199600000000001	0.0301400000000001	0.056
0.555	0.000320360000000001	0.0042	0.0125200000000001	0.0198000000000001	0.0297200000000002	0.0547200000000001
0.56	0.000324980000000001	0.004192	0.0124800000000001	0.0197200000000001	0.0293400000000002	0.0535000000000003
0.565	0.000327540000000001	0.00420600000000001	0.0124	0.01952	0.0290200000000002	0.0523200000000003
0.57	0.000329240000000001	0.00422400000000001	0.01242	0.0192999999999999	0.0287000000000001	0.0511600000000003
0.575	0.000330700000000001	0.00423400000000001	0.01252	0.0193400000000001	0.02838	0.0502000000000002
0.58	0.0003312	0.004244	0.0125	0.0194400000000001	0.02812	0.0493800000000001
0.585	0.0003314	0.00426	0.01244	0.0194	0.0278399999999999	0.04846
0.59	0.0003334	0.004294	0.01246	0.0194	0.02748	0.0475199999999999
0.595	0.000338	0.004324	0.01246	0.01942	0.0271400000000001	0.0466599999999999
0.6	0.0003418	0.00433	0.01244	0.0192999999999999	0.02686	0.0456799999999999
0.605	0.000346599999999999	0.004364	0.01242	0.0192	0.02664	0.0446199999999999
0.61	0.000353999999999999	0.004424	0.0124	0.0192000000000001	0.02654	0.04376
0.615	0.000357399999999999	0.00442199999999999	0.0124	0.0191800000000002	0.0264599999999999	0.0430000000000001
0.62	0.000358399999999999	0.0044	0.01242	0.0191800000000001	0.0262999999999999	0.0421600000000001
0.625	0.0003608	0.004436	0.01248	0.01916	0.02606	0.0413400000000001
0.63	0.0003622	0.00446999999999999	0.01254	0.0190399999999999	0.0257799999999999	0.0406400000000001
0.635	0.000364	0.004476	0.01252	0.0189199999999999	0.0254999999999999	0.04002
0.64	0.000368999999999999	0.004512	0.01238	0.0188399999999999	0.02524	0.03948
0.645	0.0003756	0.00455399999999999	0.01226	0.0187399999999999	0.02508	0.0389
0.65	0.000381	0.00454399999999999	0.01226	0.0186999999999999	0.02508	0.0383199999999998
0.655	0.0003862	0.004518	0.0123	0.0187	0.0250599999999999	0.0378399999999998
0.66	0.0003914	0.00453	0.01236	0.01866	0.0248799999999999	0.0372199999999999
0.665	0.000394	0.00456199999999999	0.01248	0.0186	0.0246999999999999	0.0364999999999998
0.67	0.000397	0.004602	0.01252	0.0185599999999999	0.0245799999999999	0.0359799999999999
0.675	0.0004022	0.00464600000000001	0.01242	0.01854	0.0244399999999999	0.0355800000000001
0.68	0.000405800000000001	0.00467600000000001	0.01246	0.0184200000000001	0.0243200000000001	0.0350400000000002
0.685	0.000406600000000001	0.00469800000000001	0.01258	0.0183	0.0242400000000003	0.0344400000000002
0.69	0.000409600000000002	0.00471800000000001	0.01256	0.0183400000000001	0.0241200000000003	0.0339000000000002
0.695	0.000415000000000002	0.00473200000000002	0.01252	0.0183400000000002	0.0240400000000003	0.0333800000000002
0.7	0.000419600000000001	0.00473200000000001	0.01254	0.01826	0.0239800000000002	0.0328800000000002
0.705	0.000426	0.00474	0.01254	0.0183599999999999	0.0238199999999999	0.0325000000000001
0.71	0.0004336	0.004744	0.01244	0.0184599999999999	0.0236599999999998	0.03226
0.715	0.000438799999999999	0.004732	0.0124	0.01836	0.0235599999999999	0.0319999999999999
0.72	0.000440399999999999	0.004746	0.01248	0.0182799999999999	0.0234199999999999	0.0316799999999999
0.725	0.000443999999999999	0.004792	0.01254	0.01824	0.0232599999999999	0.0313799999999999
0.73	0.000449999999999999	0.00484799999999999	0.01258	0.01812	0.0231999999999999	0.0310199999999998
0.735	0.000456199999999999	0.00489999999999999	0.01258	0.01802	0.02316	0.0306599999999997
0.74	0.000464199999999999	0.004924	0.0125	0.01802	0.02302	0.0304199999999999
0.745	0.000470999999999999	0.004924	0.01244	0.01802	0.02286	0.03014
0.75	0.0004752	0.004934	0.0124	0.0180600000000001	0.0227800000000001	0.0297399999999999
0.755	0.0004796	0.004944	0.0123	0.0181800000000001	0.0227200000000001	0.0294399999999999
0.76	0.0004822	0.004968	0.01232	0.0182000000000001	0.02264	0.02926
0.765	0.0004812	0.005008	0.01246	0.01808	0.02254	0.0289399999999999
0.77	0.000485	0.005022	0.01252	0.0180599999999999	0.02246	0.0285599999999998
0.775	0.0004924	0.00504199999999999	0.01254	0.0180999999999998	0.0224399999999999	0.0283599999999999
0.78	0.000496399999999999	0.00508599999999999	0.01256	0.0179799999999999	0.0223799999999999	0.0282
0.785	0.000503799999999999	0.00508199999999999	0.01256	0.01794	0.0222199999999999	0.0278600000000001
0.79	0.000513599999999999	0.00504599999999999	0.01258	0.018	0.0221199999999999	0.0275600000000002
0.795	0.000518	0.00507199999999999	0.0125799999999999	0.0178600000000001	0.0220999999999999	0.0274800000000003
0.8	0.000522600000000001	0.00511200000000001	0.01252	0.0177000000000001	0.0219600000000001	0.0273600000000003
0.805	0.000528200000000002	0.00510000000000002	0.01252	0.0177600000000001	0.0217800000000001	0.0271200000000004
0.81	0.000531200000000002	0.00511000000000002	0.01262	0.0178000000000001	0.0217800000000001	0.0269800000000003
0.815	0.000539800000000002	0.00516600000000002	0.01266	0.0178	0.0218200000000001	0.0269000000000001
0.82	0.000551600000000002	0.00518200000000002	0.01264	0.01788	0.0217400000000001	0.0267400000000001
0.825	0.000554600000000001	0.005174	0.01262	0.0178800000000001	0.0217	0.02646
0.83	0.000558399999999999	0.00519999999999999	0.01252	0.01786	0.0217599999999999	0.0262
0.835	0.000568999999999999	0.005232	0.0124	0.0178399999999999	0.0216999999999999	0.02612
0.84	0.0005744	0.005252	0.0123800000000001	0.0176999999999999	0.02158	0.0260199999999999
0.845	0.000576999999999999	0.005272	0.01242	0.01768	0.02162	0.0257599999999998
0.85	0.000584999999999999	0.005316	0.0125	0.0177799999999999	0.02158	0.0255799999999998
0.855	0.000590799999999999	0.00536199999999999	0.01258	0.0176999999999999	0.02138	0.0254799999999997
0.86	0.000590999999999999	0.00537599999999999	0.01258	0.0176200000000001	0.02132	0.0251999999999996
0.865	0.0005944	0.00541199999999999	0.01262	0.0177400000000001	0.02134	0.0249199999999998
0.87	0.0006022	0.00547199999999999	0.01268	0.01778	0.0212	0.02482
0.875	0.000614	0.005472	0.0127	0.0177199999999999	0.02108	0.0247800000000002
0.88	0.0006268	0.005456	0.0128000000000001	0.0177399999999999	0.02104	0.0247400000000003
0.885	0.0006332	0.005476	0.0129	0.0176999999999999	0.02102	0.0246800000000002
0.89	0.000633799999999999	0.005472	0.0128399999999999	0.0175399999999999	0.0211000000000001	0.0246000000000002
0.895	0.000631333333333333	0.00544666666666667	0.0127666666666665	0.0174	0.0211666666666668	0.0245666666666665
0.9	0.000614000000000001	0.00546000000000001	0.0125999999999998	0.0170000000000003	0.0216000000000001	0.0243999999999994
