|Vds|	Gm_|Vgs|=0.15V	Gm_|Vgs|=0.3V	Gm_|Vgs|=0.45V	Gm_|Vgs|=0.6V	Gm_|Vgs|=0.75V	Gm_|Vgs|=0.9V
0.9	2.13999999999995e-06	4.02e-06	7.50000000000001e-06	6.09999999999999e-06	2.25999999999987e-06	4.86600000000001e-05
0.895	1.80699999999999e-05	1.86383333333333e-05	2.1675e-05	2.09216666666667e-05	1.80549999999999e-05	5.108e-05
0.89	3.0713e-05	3.1416e-05	3.3264e-05	3.2697e-05	3.13169999999999e-05	5.1631e-05
0.885	3.9864e-05	4.0151e-05	4.0968e-05	4.1004e-05	4.06199999999999e-05	5.1376e-05
0.88	4.5683e-05	4.6156e-05	4.6108e-05	4.6514e-05	4.6862e-05	5.04639999999999e-05
0.875	4.6044e-05	4.7236e-05	4.6878e-05	4.6913e-05	4.7726e-05	4.8392e-05
0.87	4.4189e-05	4.51519999999999e-05	4.4907e-05	4.434e-05	4.5262e-05	4.572e-05
0.865	4.2142e-05	4.2415e-05	4.2486e-05	4.1869e-05	4.2296e-05	4.3525e-05
0.86	3.9495e-05	3.999e-05	4.03299999999999e-05	3.9855e-05	3.9852e-05	4.1445e-05
0.855	3.7371e-05	3.78870000000001e-05	3.8205e-05	3.7796e-05	3.78580000000001e-05	3.9097e-05
0.85	3.5974e-05	3.57080000000001e-05	3.5783e-05	3.59550000000001e-05	3.56600000000001e-05	3.7095e-05
0.845	3.4153e-05	3.3654e-05	3.3557e-05	3.43260000000001e-05	3.38750000000001e-05	3.5279e-05
0.84	3.16370000000001e-05	3.18320000000001e-05	3.17980000000001e-05	3.22920000000001e-05	3.24410000000001e-05	3.32670000000001e-05
0.835	2.96750000000001e-05	3.00300000000001e-05	3.02750000000001e-05	3.02530000000001e-05	3.04690000000001e-05	3.15740000000001e-05
0.83	2.8708e-05	2.8305e-05	2.8902e-05	2.8409e-05	2.8624e-05	3.0348e-05
0.825	2.7296e-05	2.6902e-05	2.7512e-05	2.6614e-05	2.7204e-05	2.8857e-05
0.82	2.5511e-05	2.58e-05	2.5962e-05	2.5244e-05	2.56570000000001e-05	2.7109e-05
0.815	2.463e-05	2.4602e-05	2.4454e-05	2.4065e-05	2.424e-05	2.5483e-05
0.81	2.3832e-05	2.3141e-05	2.3157e-05	2.2768e-05	2.3296e-05	2.3912e-05
0.805	2.2075e-05	2.1768e-05	2.1915e-05	2.1654e-05	2.2149e-05	2.2325e-05
0.8	2.047e-05	2.0589e-05	2.0563e-05	2.0683e-05	2.0832e-05	2.082e-05
0.795	1.9376e-05	1.9334e-05	1.9339e-05	1.9701e-05	1.9785e-05	1.9663e-05
0.79	1.8273e-05	1.8189e-05	1.8421e-05	1.8694e-05	1.8701e-05	1.8706e-05
0.785	1.7287e-05	1.7345e-05	1.7475e-05	1.7574e-05	1.7503e-05	1.7673e-05
0.78	1.6348e-05	1.6533e-05	1.6517e-05	1.6506e-05	1.643e-05	1.665e-05
0.775	1.5547e-05	1.5602e-05	1.5916e-05	1.5573e-05	1.5576e-05	1.5757e-05
0.77	1.4811e-05	1.4662e-05	1.534e-05	1.4678e-05	1.4802e-05	1.4959e-05
0.765	1.3886e-05	1.3911e-05	1.445e-05	1.3891e-05	1.397e-05	1.4206e-05
0.76	1.3035e-05	1.3339e-05	1.3492e-05	1.3198e-05	1.3064e-05	1.3417e-05
0.755	1.26998e-05	1.29184e-05	1.28582e-05	1.27212e-05	1.25484e-05	1.2813e-05
0.75	1.2357e-05	1.23082e-05	1.23234e-05	1.22628e-05	1.2244e-05	1.23414e-05
0.745	1.14006e-05	1.12708e-05	1.14034e-05	1.13164e-05	1.13706e-05	1.15034e-05
0.74	1.0486e-05	1.03658e-05	1.04308e-05	1.0299e-05	1.0414e-05	1.05486e-05
0.735	9.84820000000001e-06	9.64840000000001e-06	8.51640000000001e-06	9.59620000000001e-06	9.82680000000001e-06	9.93000000000001e-06
0.73	8.93800000000001e-06	8.76180000000001e-06	6.88160000000001e-06	8.83100000000001e-06	9.06400000000001e-06	9.28520000000001e-06
0.725	8.10880000000001e-06	8.16380000000001e-06	7.74960000000001e-06	8.19040000000001e-06	8.29780000000001e-06	8.55480000000001e-06
0.72	7.93320000000001e-06	8.10200000000001e-06	8.41200000000001e-06	8.02420000000001e-06	8.11300000000001e-06	8.28080000000001e-06
0.715	7.83559999999999e-06	7.92259999999999e-06	7.9122e-06	7.89419999999999e-06	8.02019999999999e-06	8.15539999999999e-06
0.71	7.48979999999999e-06	7.53719999999999e-06	8.82299999999999e-06	7.56279999999999e-06	7.69719999999999e-06	7.78539999999999e-06
0.705	7.16540000000001e-06	7.20720000000001e-06	9.32940000000001e-06	7.18220000000001e-06	7.35440000000001e-06	7.39180000000001e-06
0.7	6.81000000000001e-06	6.80140000000001e-06	7.28780000000001e-06	6.81420000000001e-06	6.93440000000001e-06	7.02580000000001e-06
0.695	6.42460000000001e-06	6.43720000000001e-06	5.99100000000001e-06	6.44500000000001e-06	6.49620000000001e-06	6.60280000000001e-06
0.69	6.07860000000001e-06	6.17900000000001e-06	6.00660000000001e-06	6.05900000000001e-06	6.11080000000001e-06	6.25600000000001e-06
0.685	5.77340000000001e-06	5.87320000000001e-06	5.68620000000001e-06	5.73820000000001e-06	5.76900000000001e-06	5.99580000000001e-06
0.68	5.494e-06	5.56699999999999e-06	5.41599999999999e-06	5.4768e-06	5.4782e-06	5.65959999999999e-06
0.675	5.2434e-06	5.2752e-06	5.1636e-06	5.1856e-06	5.1798e-06	5.33679999999999e-06
0.67	5.013e-06	4.9316e-06	4.9046e-06	4.9224e-06	4.0716e-06	5.0562e-06
0.665	4.751e-06	4.6412e-06	4.6996e-06	4.7424e-06	3.0666e-06	4.8048e-06
0.66	4.4802e-06	4.4188e-06	4.4944e-06	4.55e-06	3.7288e-06	4.619e-06
0.655	4.2438e-06	4.1946e-06	4.2686e-06	4.2918e-06	4.3332e-06	4.3802e-06
0.65	4.013e-06	3.9992e-06	4.0536e-06	4.0292e-06	4.1072e-06	4.1136e-06
0.645	3.7834e-06	3.7992e-06	3.8594e-06	3.8078e-06	4.717e-06	3.9234e-06
0.64	3.614e-06	3.5972e-06	3.6762e-06	3.6152e-06	5.2994e-06	3.7106e-06
0.635	3.4742e-06	3.4436e-06	3.5032e-06	3.44e-06	4.2138e-06	3.4828e-06
0.63	3.2918e-06	3.2654e-06	3.3212e-06	3.2742e-06	3.196e-06	3.3198e-06
0.625	3.1052e-06	3.0954e-06	3.1336e-06	3.1216e-06	3.081e-06	3.1716e-06
0.62	2.9446e-06	2.9916e-06	2.964e-06	2.9636e-06	2.979e-06	3.0488e-06
0.615	2.8006e-06	2.84e-06	2.812e-06	2.793e-06	2.8678e-06	2.927e-06
0.61	2.6672e-06	2.662e-06	2.6956e-06	2.6464e-06	2.738e-06	2.7552e-06
0.605	2.526e-06	2.5556e-06	2.5748e-06	2.5262e-06	2.5894e-06	2.6174e-06
0.6	2.3932e-06	2.4348e-06	2.4182e-06	2.4084e-06	2.4592e-06	2.5068e-06
0.595	2.2932e-06	2.2864e-06	2.2926e-06	2.304e-06	2.339e-06	2.3454e-06
0.59	2.1866e-06	2.1916e-06	2.1964e-06	2.2044e-06	2.2078e-06	2.2186e-06
0.585	2.0562e-06	2.101e-06	2.0688e-06	2.0876e-06	2.108e-06	2.147e-06
0.58	1.9568e-06	1.9778e-06	1.965e-06	1.9846e-06	2.0162e-06	2.0396e-06
0.575	1.8818e-06	1.8768e-06	1.8962e-06	1.9012e-06	1.892e-06	1.9358e-06
0.57	1.785e-06	1.8026e-06	1.7976e-06	1.817e-06	1.7922e-06	1.8602e-06
0.565	1.695e-06	1.7174e-06	1.6968e-06	1.7308e-06	1.7262e-06	1.7618e-06
0.56	1.6286e-06	1.6208e-06	1.611e-06	1.6472e-06	1.6398e-06	1.6652e-06
0.555	1.5556e-06	1.5344e-06	1.5232e-06	1.5698e-06	1.557e-06	1.5882e-06
0.55	1.4812e-06	1.4704e-06	1.4552e-06	1.4898e-06	1.4958e-06	1.5126e-06
0.545	1.4032e-06	1.397e-06	1.39e-06	1.4076e-06	1.4144e-06	1.4502e-06
0.54	1.313e-06	1.32e-06	1.3106e-06	1.3464e-06	1.3244e-06	1.3886e-06
0.535	1.2554e-06	1.2874e-06	1.2648e-06	1.3102e-06	1.2728e-06	1.3174e-06
0.53	1.233e-06	1.2656e-06	1.2422e-06	1.2654e-06	1.2426e-06	1.2748e-06
0.525	1.1958e-06	1.206e-06	1.1958e-06	1.2014e-06	1.1972e-06	1.251e-06
0.52	1.168658e-06	1.156928e-06	1.157712e-06	1.157548e-06	1.167712e-06	1.208748e-06
0.515	1.1534e-06	1.13362e-06	1.135906e-06	1.126198e-06	1.150362e-06	1.16534e-06
0.51	1.08308e-06	1.071954e-06	1.07253e-06	1.054488e-06	1.092172e-06	1.11839e-06
0.505	9.86826e-07	9.90916e-07	9.8263e-07	9.74672e-07	1.011776e-06	1.043354e-06
0.5	9.21414000000001e-07	9.39024000000001e-07	9.22088000000001e-07	9.32236000000001e-07	9.51976000000001e-07	9.57062000000001e-07
0.495	8.58700000000001e-07	8.82974000000001e-07	8.71550000000001e-07	8.81052000000001e-07	8.89928000000001e-07	8.85110000000001e-07
0.49	7.89928000000001e-07	8.07642000000001e-07	8.07520000000001e-07	8.09174000000001e-07	8.16282000000001e-07	8.21728000000001e-07
0.485	7.50172000000001e-07	7.54284000000001e-07	7.59688000000001e-07	7.61548000000001e-07	7.68394000000001e-07	7.71872000000001e-07
0.48	7.27864e-07	7.22036e-07	7.2748e-07	7.30212e-07	7.37030000000001e-07	7.37398e-07
0.475	6.96469999999999e-07	6.91177999999999e-07	6.90418e-07	6.94441999999999e-07	7.03498e-07	7.07432e-07
0.47	6.60146e-07	6.62479999999999e-07	6.53132e-07	6.61761999999999e-07	6.7235e-07	6.80281999999999e-07
0.465	6.28425999999999e-07	6.34315999999999e-07	6.23239999999999e-07	6.31413999999999e-07	6.407e-07	6.48653999999999e-07
0.46	6.01602e-07	6.0406e-07	5.96597999999999e-07	6.02561999999999e-07	6.06087999999999e-07	6.17358e-07
0.455	5.74156e-07	5.72128e-07	5.69241999999999e-07	5.77994e-07	5.73649999999999e-07	5.88695999999999e-07
0.45	5.4759e-07	5.43108e-07	5.44329999999999e-07	5.53454e-07	5.46213999999999e-07	5.58517999999999e-07
0.445	5.21936e-07	5.16764e-07	5.1994e-07	5.27432e-07	5.21184e-07	5.30508e-07
0.44	4.93174000000001e-07	4.91118000000001e-07	4.94704000000001e-07	4.99668000000001e-07	4.98708000000001e-07	5.07184000000001e-07
0.435	4.65314000000001e-07	4.68436000000001e-07	4.71698000000001e-07	4.73802000000001e-07	4.77244000000001e-07	4.85982000000001e-07
0.43	4.42360000000001e-07	4.48008000000001e-07	4.51224000000001e-07	4.52286000000001e-07	4.55170000000001e-07	4.66526000000001e-07
0.425	4.21242000000001e-07	4.26714000000001e-07	4.30244000000001e-07	4.31060000000001e-07	4.34168000000001e-07	4.49064000000001e-07
0.42	4.01584e-07	4.07518e-07	4.10652e-07	4.10372e-07	4.14998e-07	4.28068e-07
0.415	3.86192e-07	3.89312e-07	3.93426e-07	3.94012e-07	3.96014e-07	4.06474e-07
0.41	3.70624e-07	3.70176e-07	3.75444e-07	3.78546e-07	3.78024e-07	3.8691e-07
0.405	3.52242e-07	3.51814e-07	3.57808e-07	3.5918e-07	3.61424e-07	3.64638e-07
0.4	3.35688e-07	3.35242e-07	3.412e-07	3.41268e-07	3.4423e-07	3.42518e-07
0.395	3.21e-07	3.20012e-07	3.23656e-07	3.2548e-07	3.25968e-07	3.2549e-07
0.39	3.05532e-07	3.05642e-07	3.07032e-07	3.09602e-07	3.10156e-07	3.12308e-07
0.385	2.91476e-07	2.92194e-07	2.9306e-07	2.93418e-07	2.96132e-07	2.99478e-07
0.38	2.79252e-07	2.7897e-07	2.7952e-07	2.77538e-07	2.80952e-07	2.86868e-07
0.375	2.66482e-07	2.65362e-07	2.6698e-07	2.64408e-07	2.64844e-07	2.74946e-07
0.37	2.54226e-07	2.51684e-07	2.56002e-07	2.52094e-07	2.49672e-07	2.62732e-07
0.365	2.42594e-07	2.41094e-07	2.44042e-07	2.40478e-07	2.36892e-07	2.50086e-07
0.36	2.30356e-07	2.32456e-07	2.3175e-07	2.31474e-07	2.25418e-07	2.3828e-07
0.355	2.18352e-07	2.2289e-07	2.20776e-07	2.22758e-07	2.1552e-07	2.27496e-07
0.35	2.08566e-07	2.13066e-07	2.1005e-07	2.12276e-07	2.08018e-07	2.16846e-07
0.345	1.99328000000001e-07	2.03282000000001e-07	1.99868000000001e-07	2.03412000000001e-07	2.01892000000001e-07	2.06958000000001e-07
0.34	1.89918000000001e-07	1.92624000000001e-07	1.91244000000001e-07	1.95012000000001e-07	1.94716000000001e-07	1.97876000000001e-07
0.335	1.81930000000001e-07	1.82114000000001e-07	1.83172000000001e-07	1.84980000000001e-07	1.87180000000001e-07	1.88520000000001e-07
0.33	1.74476000000001e-07	1.73372000000001e-07	1.74652000000001e-07	1.76524000000001e-07	1.79892000000001e-07	1.80098000000001e-07
0.325	1.66772e-07	1.65672e-07	1.66436e-07	1.69704e-07	1.72246e-07	1.72786e-07
0.32	1.6086e-07	1.6051e-07	1.59194e-07	1.62048e-07	1.63968e-07	1.65482e-07
0.315	1.56614e-07	1.58186e-07	1.54262e-07	1.5598e-07	1.56718e-07	1.58302e-07
0.31	1.49168e-07	1.5356e-07	1.50714e-07	1.5143e-07	1.51086e-07	1.52954e-07
0.305	1.40378e-07	1.4502e-07	1.44342e-07	1.4419e-07	1.43546e-07	1.48204e-07
0.3	1.33148e-07	1.35714e-07	1.36198e-07	1.35606e-07	1.35232e-07	1.40758e-07
0.295	1.25048e-07	1.25644e-07	1.28726e-07	1.28188e-07	1.28488e-07	1.32426e-07
0.29	1.1633e-07	1.14738e-07	1.19986e-07	1.20272e-07	1.21186e-07	1.25074e-07
0.285	1.10902e-07	1.0728e-07	1.11264e-07	1.1228e-07	1.13074e-07	1.16932e-07
0.28	1.07734e-07	1.04224e-07	1.06668e-07	1.0761e-07	1.07794e-07	1.0931e-07
0.275	1.03808e-07	1.02056e-07	1.04246e-07	1.02914e-07	1.04816e-07	1.04898e-07
0.27	1.0198e-07	1.01716e-07	1.01176e-07	9.93159999999999e-08	1.0154e-07	1.02474e-07
0.265	1.02881e-07	1.03645e-07	9.98499999999999e-08	1.01556e-07	1.00037e-07	1.02249e-07
0.26	1.02611e-07	1.03393e-07	1.00701e-07	1.03265e-07	1.0087e-07	1.03551e-07
0.255	9.97629999999999e-08	1.00349e-07	9.99529999999999e-08	1.00929e-07	1.00694e-07	1.02618e-07
0.25	9.57839999999999e-08	9.69209999999999e-08	9.67099999999999e-08	9.90659999999999e-08	9.82039999999999e-08	9.96719999999999e-08
0.245	8.97189999999999e-08	9.10629999999999e-08	9.25999999999999e-08	9.51649999999999e-08	9.47359999999999e-08	9.57609999999999e-08
0.24	8.15849999999999e-08	8.2038e-08	8.64319999999999e-08	8.5289e-08	8.91449999999999e-08	8.89099999999999e-08
0.235	7.49429999999999e-08	7.45849999999999e-08	7.81349999999999e-08	7.6161e-08	8.10629999999999e-08	8.03129999999999e-08
0.23	7.03079999999999e-08	7.01099999999999e-08	7.13609999999999e-08	7.1026e-08	7.42439999999999e-08	7.38339999999999e-08
0.225	6.65010000000001e-08	6.67310000000001e-08	6.72060000000001e-08	6.68060000000001e-08	6.97500000000001e-08	6.96220000000001e-08
0.22	6.35210000000002e-08	6.38110000000002e-08	6.41220000000002e-08	6.35620000000002e-08	6.58780000000002e-08	6.62720000000002e-08
0.215	6.07020000000002e-08	6.11730000000002e-08	6.13350000000002e-08	6.14060000000002e-08	6.23360000000002e-08	6.34420000000002e-08
0.21	5.78920000000002e-08	5.86800000000002e-08	5.86790000000002e-08	5.93540000000002e-08	5.93760000000002e-08	6.06790000000002e-08
0.205	5.55320000000002e-08	5.61100000000002e-08	5.61730000000002e-08	5.71430000000002e-08	5.66280000000002e-08	5.80000000000002e-08
0.2	5.32370000000001e-08	5.34300000000001e-08	5.36810000000001e-08	5.51970000000001e-08	5.38510000000001e-08	5.54480000000001e-08
0.195	5.0767e-08	5.0867e-08	5.1247e-08	5.3009e-08	5.1518e-08	5.2795e-08
0.19	4.844e-08	4.8614e-08	4.8982e-08	4.9763e-08	4.9652e-08	5.0352e-08
0.185	4.6269e-08	4.6419e-08	4.6863e-08	4.6643e-08	4.7669e-08	4.8e-08
0.18	4.4111e-08	4.416e-08	4.4802e-08	4.4488e-08	4.5689e-08	4.5579e-08
0.175	4.2139e-08	4.2162e-08	4.273e-08	4.268e-08	4.3907e-08	4.3333e-08
0.17	4.0395e-08	4.0488e-08	4.077e-08	4.0867e-08	4.2086e-08	4.155e-08
0.165	3.8604e-08	3.8825e-08	3.9047e-08	3.9218e-08	4.0266e-08	4.0327e-08
0.16	3.6867e-08	3.7256e-08	3.7401e-08	3.7781e-08	3.846e-08	3.8966e-08
0.155	3.5312e-08	3.5897e-08	3.5803e-08	3.6232e-08	3.6628e-08	3.6998e-08
0.15	3.3909e-08	3.4487e-08	3.4456e-08	3.4604e-08	3.5017e-08	3.5293e-08
0.145	3.2592e-08	3.2975e-08	3.3133e-08	3.3091e-08	3.364e-08	3.3926e-08
0.14	3.1416e-08	3.1551e-08	3.1707e-08	3.1886e-08	3.1924e-08	3.2009e-08
0.135	3.0369e-08	3.0315e-08	3.0419e-08	3.0734e-08	3.0321e-08	3.0534e-08
0.13	2.9245e-08	2.9203e-08	2.9296e-08	2.9532e-08	2.9353e-08	3.0103e-08
0.125	2.7999e-08	2.8079e-08	2.8152e-08	2.8437e-08	2.8463e-08	2.9304e-08
0.12	2.6774e-08	2.6896e-08	2.6951e-08	2.7402e-08	2.743e-08	2.7967e-08
0.115	2.5755e-08	2.5981e-08	2.6026e-08	2.6317e-08	2.6627e-08	2.6958e-08
0.11	2.479e-08	2.522e-08	2.5422e-08	2.5261e-08	2.5916e-08	2.5902e-08
0.105	2.3807e-08	2.4228e-08	2.4668e-08	2.4524e-08	2.4981e-08	2.4595e-08
0.1	2.2987e-08	2.3348e-08	2.3738e-08	2.3824e-08	2.387e-08	2.3707e-08
0.095	2.22750000000001e-08	2.26610000000001e-08	2.29590000000001e-08	2.30020000000001e-08	2.26620000000001e-08	2.32030000000001e-08
0.09	2.14950000000001e-08	2.18080000000001e-08	2.20440000000001e-08	2.23130000000001e-08	2.20930000000001e-08	2.26240000000001e-08
0.0850000000000001	2.08080000000001e-08	2.09720000000001e-08	2.10230000000001e-08	2.16660000000001e-08	2.19460000000001e-08	2.20380000000001e-08
0.0800000000000001	2.04210000000001e-08	2.04680000000001e-08	2.03090000000001e-08	2.08970000000001e-08	2.13560000000001e-08	2.15750000000001e-08
0.0750000000000001	2.007e-08	2.0062e-08	1.9888e-08	2.0261e-08	2.0901e-08	2.1063e-08
0.0700000000000001	1.9658e-08	1.9675e-08	1.9578e-08	1.9941e-08	2.0893e-08	2.0584e-08
0.0650000000000001	1.9362e-08	1.9471e-08	1.9416e-08	1.9675e-08	2.0467e-08	2.0276e-08
0.0600000000000001	1.91356e-08	1.93155e-08	1.929e-08	1.947e-08	1.9719e-08	2.0054e-08
0.055	1.89439e-08	1.91862e-08	1.91818e-08	1.95523e-08	1.9537e-08	2.0121e-08
0.05	1.88766e-08	1.92185e-08	1.94165e-08	1.97205e-08	1.98431e-08	2.03543e-08
0.045	1.89417e-08	1.93369e-08	1.97072e-08	1.97644e-08	2.01137e-08	2.04394e-08
0.04	1.9051e-08	1.93933e-08	1.97934e-08	1.9917e-08	2.03565e-08	2.06484e-08
0.035	1.9303e-08	1.95218e-08	2.00232e-08	2.03152e-08	2.07956e-08	2.10378e-08
0.03	1.97493e-08	1.99392e-08	2.04424e-08	2.06509e-08	2.12857e-08	2.14355e-08
0.025	2.02531e-08	2.04556e-08	2.0765e-08	2.10334e-08	2.17233e-08	2.19912e-08
0.02	2.08651e-08	2.09975e-08	2.12478e-08	2.18155e-08	2.23692e-08	2.27996e-08
0.015	2.16813e-08	2.18251e-08	2.21854e-08	2.27191e-08	2.32528e-08	2.37316e-08
0.01	2.24921e-08	2.27795e-08	2.31636e-08	2.34499e-08	2.41413e-08	2.46982e-08
0.005	2.328e-08	2.35678333333333e-08	2.41755e-08	2.43853333333333e-08	2.51958333333333e-08	2.57225e-08
0	2.4117e-08	2.4772e-08	2.529e-08	2.4795e-08	2.5993e-08	2.648e-08
